142,77,0.28694,0.28742,0.28767,0.28767,0.28718,0.28645,0.28596,0.28571,0.28571,0.28571,0.2862,0.28767,0.28816,0.2884,0.28864,0.28864,0.28864,0.28913,0.29035,0.29402,0.29792,0.30427,0.31404,0.3475,0.37289,0.40391,0.43907,0.51502,0.55214,0.58706,0.61514,0.66227,0.68425,0.70427,0.72161,0.7475,0.75604,0.7619,0.76557,0.76484,0.76093,0.75678,0.7514,0.73602,0.72552,0.71355,0.69988,0.66911,0.65226,0.63468,0.61832,0.58632,0.56972,0.55385,0.53919,0.51233,0.50085,0.49011,0.48034,0.46252,0.45495,0.44689,0.43907,0.42369,0.41587,0.4083,0.40073,0.38657,0.37998,0.37338,0.36777,0.35751,0.35214,0.34676,0.34139,0.33138,0.32698,0.32357,0.32137,0.32381,0.32991,0.34139,0.35849,0.40904,0.44078,0.47448,0.50818,0.57021,0.59634,0.61856,0.63468,0.65543,0.66276,0.66764,0.67082,0.67179,0.67009,0.66667,0.66129,0.64689,0.63761,0.62637,0.61392,0.61392,0.56874,0.55165,0.53431,0.49988,0.48352,0.46838,0.45592,0.43297,0.42149,0.41026,0.39976,0.38144,0.37363,0.35824,0.33944,0.32063,0.31624,0.31233,0.30842,0.2989,0.29353,0.2884,0.28327,0.27253,0.26691,0.26129,0.25739,0.25128,0.24811,0.24542,0.24347,0.24029,0.2381,0.23541,0.23223,0.22686,0.2254,0.22344,0.22198,0.21929,0.2188,0.2188,0.2188,0.21783,0.21709,0.21685,0.21709,0.21856,0.2188,0.21954,0.22051,0.22247,0.22369,0.22491,0.22613,0.22955,0.23199,0.23419,0.23614,0.23907,0.24029,0.24151,0.24274,0.24493,0.24591,0.24713,0.2486,0.25055,0.25079,0.25104,0.25104,0.25104,0.25104,0.25104,0.25104,0.25153,0.2525,0.25299,0.25324,0.25324,0.25324,0.25372,0.25519,0.25885,0.26056,0.26227,0.26422,0.26642,0.2674,0.26838,0.26935,0.27082,0.27106,0.27131,0.27253,0.28156
142,77,0.29109,0.30769,0.33211,0.40513,0.45128,0.50085,0.55067,0.64249,0.68132,0.71038,0.73309,0.77631,0.79316,0.80659,0.81685,0.8293,0.83175,0.83199,0.83028,0.81929,0.8105,0.80024,0.78828,0.75946,0.74261,0.72454,0.70525,0.66642,0.64713,0.63004,0.61416,0.58193,0.56654,0.55214,0.53871,0.51575,0.50549,0.49597,0.48669,0.46935,0.46203,0.45397,0.44591,0.4293,0.42149,0.41416,0.40733,0.39414,0.38803,0.38315,0.37875,0.36825,0.36215,0.3558,0.34921,0.33724,0.33211,0.32747,0.32405,0.31941,0.31844,0.31746,0.31624,0.31404,0.31306,0.31184,0.31062,0.30842,0.30745,0.30696,0.30672,0.30598,0.30452,0.30256,0.3011,0.2967,0.29377,0.2906,0.28742,0.2823,0.28083,0.27985,0.2779,0.27179,0.26886,0.26593,0.263,0.2569,0.25421,0.25177,0.25031,0.24786,0.24591,0.2442,0.24322,0.2464,0.25348,0.26593,0.28523,0.3453,0.37875,0.41294,0.45348,0.53919,0.57851,0.61441,0.64664,0.69719,0.716,0.73065,0.73993,0.75189,0.75629,0.75946,0.76093,0.75849,0.75433,0.74774,0.73895,0.7138,0.69939,0.68425,0.66691,0.6022,0.5768,0.55629,0.53895,0.50916,0.49597,0.48352,0.47302,0.45348,0.44371,0.43443,0.42613,0.41099,0.40391,0.39731,0.39145,0.37949,0.37411,0.36947,0.36435,0.35214,0.3453,0.33846,0.33187,0.31941,0.3138,0.30867,0.30476,0.29768,0.29377,0.28962,0.28523,0.27643,0.27228,0.26838,0.26471,0.25861,0.2569,0.25568,0.25446,0.2525,0.25153,0.25079,0.25055,0.25031,0.25031,0.25031,0.25031,0.25006,0.24933,0.2486,0.24786,0.24737,0.24737,0.24786,0.24884,0.25079,0.25226,0.25299,0.25348,0.2547,0.25495,0.25543,0.25592,0.25641,0.25665,0.25665,0.25763,0.25983,0.26007,0.26032,0.26032,0.26203,0.26496,0.27082,0.28132,0.31673
142,77,0.24737,0.24737,0.24884,0.24957,0.24982,0.25031,0.25153,0.2591,0.26813,0.27985,0.29573,0.34921,0.38535,0.42564,0.46764,0.55018,0.58755,0.62125,0.65079,0.69548,0.70965,0.72332,0.73553,0.75433,0.76068,0.76459,0.7663,0.76484,0.76166,0.75629,0.74945,0.73187,0.72063,0.70769,0.69328,0.66129,0.64396,0.62613,0.60855,0.57656,0.56288,0.54921,0.53553,0.51062,0.49939,0.48913,0.47985,0.463,0.45592,0.45006,0.44493,0.43223,0.42564,0.41905,0.41221,0.39878,0.39145,0.38437,0.37729,0.36484,0.35971,0.35385,0.34799,0.33602,0.32967,0.32357,0.3177,0.30623,0.3011,0.29744,0.29451,0.28694,0.28303,0.27888,0.27497,0.26813,0.26569,0.26374,0.26178,0.2591,0.25861,0.25763,0.25617,0.25299,0.25128,0.24982,0.24908,0.24811,0.24737,0.24737,0.24737,0.24615,0.24542,0.24518,0.24493,0.24493,0.24493,0.24493,0.24518,0.24664,0.24786,0.24835,0.2486,0.24884,0.24884,0.24884,0.24884,0.25104,0.25543,0.26252,0.27326,0.31453,0.34554,0.38242,0.42295,0.50745,0.54799,0.5851,0.61807,0.66838,0.68498,0.70159,0.71648,0.74017,0.74896,0.75556,0.7602,0.76361,0.76264,0.75922,0.7536,0.73993,0.72674,0.70989,0.69499,0.66398,0.64762,0.63053,0.61343,0.58266,0.56752,0.55214,0.53748,0.51062,0.49841,0.48694,0.47619,0.45641,0.44786,0.44078,0.43468,0.42247,0.41661,0.4105,0.4044,0.39267,0.38657,0.38046,0.37411,0.36386,0.35824,0.35238,0.34652,0.33529,0.32991,0.3243,0.31868,0.30867,0.30403,0.30061,0.29792,0.29084,0.28694,0.28303,0.27937,0.27277,0.27009,0.26764,0.2652,0.26325,0.26227,0.26081,0.25934,0.25617,0.2547,0.25299,0.25153,0.25006,0.24957,0.25006,0.25031,0.24982,0.24933,0.2486,0.24811,0.24835,0.24884,0.24933,0.24957,0.25128
142,77,0.25177,0.25177,0.25226,0.25226,0.25153,0.25079,0.25031,0.25055,0.25275,0.25665,0.263,0.29011,0.31233,0.34042,0.37363,0.44982,0.48962,0.52821,0.56459,0.61832,0.64347,0.66716,0.68864,0.72381,0.73748,0.74872,0.75775,0.76923,0.77192,0.77167,0.76923,0.7619,0.75556,0.7475,0.73748,0.71136,0.69621,0.67961,0.66227,0.63004,0.61392,0.59829,0.58339,0.55678,0.54554,0.53553,0.52674,0.51184,0.50549,0.50061,0.49646,0.48816,0.48449,0.48156,0.47888,0.47302,0.46984,0.46667,0.46325,0.45543,0.45128,0.44737,0.44127,0.44127,0.43565,0.43272,0.4254,0.42198,0.41832,0.41465,0.41074,0.40122,0.40122,0.39658,0.38901,0.38462,0.38388,0.38437,0.38608,0.39096,0.39438,0.39853,0.40293,0.41392,0.41978,0.4254,0.43101,0.44078,0.4442,0.4464,0.44713,0.4464,0.44469,0.442,0.43858,0.42979,0.42515,0.42027,0.41563,0.4083,0.40537,0.40293,0.40147,0.4044,0.41074,0.42173,0.43785,0.48498,0.51453,0.54164,0.56728,0.62589,0.65372,0.67912,0.70159,0.73724,0.75165,0.76386,0.7746,0.78608,0.79121,0.7956,0.79951,0.80488,0.8061,0.80635,0.80513,0.79707,0.78999,0.78046,0.76899,0.74164,0.72601,0.70965,0.69353,0.66325,0.64982,0.62784,0.6022,0.57192,0.56093,0.55116,0.54237,0.52674,0.51917,0.5116,0.50379,0.48742,0.47985,0.47228,0.46398,0.44664,0.43736,0.42784,0.41807,0.3978,0.38706,0.37607,0.36435,0.34408,0.3326,0.32039,0.30794,0.28254,0.27057,0.2591,0.2486,0.23223,0.22735,0.22393,0.22002,0.21074,0.20586,0.20049,0.19463,0.18144,0.17436,0.16728,0.16044,0.15165,0.14701,0.14237,0.13846,0.13333,0.13162,0.12991,0.12845,0.1265,0.1265,0.12723,0.12747,0.12747,0.12772,0.12845,0.12943,0.13114,0.13211,0.13333,0.1348,0.14188
142,77,0.14872,0.15995,0.17656,0.23028,0.26642,0.3072,0.35018,0.43468,0.46886,0.49719,0.52552,0.57411,0.59316,0.60855,0.62051,0.6359,0.64029,0.64274,0.64371,0.64054,0.6381,0.63492,0.63101,0.62125,0.6149,0.60733,0.59853,0.57314,0.56459,0.55458,0.54261,0.51648,0.5033,0.49035,0.4779,0.45495,0.44444,0.43492,0.42637,0.41343,0.40781,0.40195,0.39634,0.3851,0.37949,0.37387,0.36825,0.35702,0.35214,0.34774,0.34286,0.33309,0.32821,0.32308,0.31746,0.3072,0.30183,0.2967,0.29158,0.284,0.27937,0.27424,0.26911,0.2591,0.2547,0.25055,0.24689,0.23956,0.23687,0.23516,0.23297,0.22759,0.22466,0.22173,0.21856,0.2127,0.21001,0.20781,0.20635,0.20684,0.20659,0.20611,0.20586,0.20562,0.20586,0.20611,0.20635,0.20733,0.20806,0.20855,0.2083,0.20708,0.20684,0.20708,0.20757,0.21221,0.2188,0.23053,0.24567,0.29304,0.32796,0.3685,0.41245,0.50134,0.54261,0.57949,0.61123,0.66081,0.67668,0.68791,0.69841,0.7138,0.71819,0.72039,0.72063,0.71673,0.71282,0.70769,0.7011,0.68523,0.67619,0.66593,0.65446,0.62833,0.61343,0.59829,0.58291,0.55287,0.53944,0.5243,0.51038,0.48987,0.47937,0.46935,0.45958,0.44176,0.43346,0.4254,0.41832,0.40513,0.39756,0.39023,0.40415,0.43883,0.44127,0.44005,0.43687,0.42808,0.42393,0.42002,0.41563,0.40635,0.40171,0.39707,0.39267,0.38413,0.37998,0.37607,0.37338,0.36899,0.36581,0.36239,0.35897,0.35189,0.34847,0.3453,0.34237,0.33675,0.33504,0.33407,0.33284,0.32991,0.32869,0.32747,0.32625,0.32381,0.32259,0.32137,0.32088,0.32039,0.31966,0.31893,0.31868,0.31868,0.31868,0.31893,0.31917,0.31917,0.31966,0.32063,0.32161,0.32821,0.33675,0.35067,0.3707,0.42784,0.46252,0.49915,0.53114,0.58926
142,77,0.61709,0.64151,0.66252,0.66252,0.70501,0.71355,0.7199,0.72698,0.72723,0.72601,0.72479,0.72039,0.71673,0.71258,0.7072,0.69231,0.68254,0.67155,0.66007,0.63565,0.62173,0.60733,0.59341,0.56703,0.55482,0.54335,0.53284,0.51453,0.50745,0.50134,0.49524,0.48303,0.47741,0.4735,0.46935,0.46105,0.4569,0.45275,0.44957,0.44347,0.43932,0.43516,0.43126,0.4232,0.41905,0.41514,0.41099,0.40195,0.39829,0.39512,0.39121,0.38315,0.379,0.37509,0.37094,0.36288,0.35946,0.35629,0.35409,0.34994,0.34725,0.34432,0.34164,0.33748,0.33529,0.33284,0.33065,0.32723,0.32674,0.32698,0.32698,0.32698,0.32698,0.32723,0.32772,0.32943,0.33065,0.33187,0.33333,0.33602,0.33651,0.33675,0.33626,0.33382,0.3326,0.33211,0.33333,0.34481,0.35531,0.37167,0.39414,0.45372,0.48767,0.5221,0.55531,0.61441,0.63907,0.66056,0.67619,0.70061,0.71136,0.72015,0.73138,0.73431,0.73529,0.73431,0.73187,0.72259,0.71624,0.70867,0.69988,0.67741,0.66398,0.64982,0.63492,0.60415,0.58926,0.57509,0.56288,0.54066,0.52991,0.51966,0.51038,0.49499,0.48913,0.48449,0.48034,0.47302,0.47057,0.46838,0.46642,0.46325,0.46178,0.46007,0.45665,0.44933,0.4442,0.43761,0.43175,0.41978,0.41392,0.4083,0.40342,0.3956,0.39194,0.38803,0.38388,0.34066,0.32698,0.3177,0.31087,0.30134,0.29792,0.29499,0.2928,0.28889,0.28694,0.28523,0.28425,0.28278,0.28156,0.2801,0.27863,0.27521,0.27375,0.27179,0.26935,0.26447,0.26276,0.26032,0.25763,0.25348,0.2525,0.25201,0.25177,0.25104,0.25128,0.25128,0.25177,0.25226,0.25153,0.25128,0.25153,0.25641,0.26398,0.27717,0.29744,0.35336,0.38437,0.42271,0.46471,0.54725,0.58388,0.61612,0.64347,0.68474,0.69988,0.7116,0.71893,0.72723
142,77,0.7304,0.73236,0.73284,0.72991,0.7265,0.72186,0.716,0.70061,0.69133,0.68059,0.66838,0.64029,0.62491,0.60904,0.59316,0.56239,0.54774,0.53431,0.52332,0.5033,0.49353,0.48425,0.46789,0.46081,0.45446,0.44884,0.44371,0.43419,0.43004,0.42564,0.421,0.41099,0.40562,0.4,0.39438,0.38388,0.37705,0.37045,0.36654,0.35775,0.35214,0.34628,0.34066,0.32967,0.3243,0.31941,0.31502,0.30745,0.30476,0.30159,0.29792,0.29109,0.28791,0.28523,0.28278,0.27814,0.27619,0.27521,0.27473,0.27253,0.27131,0.26984,0.26838,0.26545,0.26422,0.263,0.26227,0.26227,0.26325,0.26374,0.26398,0.26422,0.26422,0.26422,0.26422,0.26422,0.26422,0.26496,0.26593,0.26667,0.26691,0.26716,0.26838,0.27912,0.29182,0.3116,0.33846,0.40488,0.43834,0.47692,0.51673,0.58974,0.62051,0.64713,0.66911,0.70085,0.71184,0.71844,0.7221,0.72698,0.72796,0.72796,0.72796,0.72698,0.71795,0.71282,0.70623,0.68962,0.67961,0.66813,0.65543,0.62735,0.61221,0.59658,0.5812,0.55214,0.53871,0.52723,0.51722,0.49719,0.4884,0.48034,0.47302,0.45983,0.45372,0.44786,0.44249,0.43297,0.4293,0.4254,0.41612,0.41123,0.4061,0.40073,0.39487,0.38217,0.37582,0.37045,0.36581,0.35311,0.34847,0.34359,0.33871,0.32894,0.32454,0.32039,0.31648,0.31013,0.30672,0.30281,0.29915,0.29304,0.29011,0.28694,0.284,0.27912,0.27717,0.27619,0.27521,0.27228,0.27082,0.2696,0.26838,0.26545,0.26447,0.26398,0.26374,0.26422,0.2652,0.26545,0.2652,0.26398,0.26374,0.26398,0.2652,0.28474,0.30281,0.316,0.33553,0.41563,0.44689,0.484,0.52259,0.59292,0.62222,0.65079,0.6735,0.70037,0.70989,0.716,0.7199,0.72527,0.72625,0.72601,0.72479,0.71673,0.71282,0.7072,0.69768,0.68034
142,77,0.67033,0.6547,0.6547,0.61416,0.59536,0.57802,0.56557,0.53675,0.52405,0.51502,0.50549,0.48278,0.47546,0.46813,0.45983,0.44786,0.44322,0.43761,0.4315,0.42393,0.41832,0.41197,0.40757,0.39829,0.39121,0.3851,0.37949,0.37021,0.36654,0.36166,0.35482,0.34359,0.33846,0.33382,0.32918,0.32039,0.3177,0.31526,0.31526,0.30379,0.29963,0.29573,0.29255,0.28742,0.28498,0.28278,0.28156,0.27912,0.27717,0.27546,0.27375,0.27131,0.27033,0.26935,0.26862,0.2674,0.26764,0.26813,0.26838,0.26789,0.26813,0.26984,0.27399,0.29646,0.31697,0.34383,0.37192,0.4381,0.47717,0.51648,0.55385,0.61807,0.64371,0.66471,0.68181,0.70574,0.71184,0.71526,0.71844,0.72161,0.72112,0.71941,0.71673,0.7072,0.70061,0.69255,0.684,0.66422,0.65226,0.63907,0.62466,0.59389,0.57802,0.56215,0.54676,0.51819,0.50647,0.49646,0.48645,0.46862,0.46056,0.45348,0.44103,0.43541,0.43028,0.42564,0.42173,0.41392,0.40977,0.40537,0.40098,0.39145,0.38632,0.38095,0.37485,0.36313,0.35897,0.35507,0.35067,0.34066,0.33602,0.33138,0.32698,0.31893,0.31502,0.31087,0.30769,0.30159,0.29817,0.29524,0.29255,0.28791,0.28547,0.28303,0.28059,0.27643,0.27546,0.27497,0.27399,0.27155,0.27033,0.26935,0.26886,0.26862,0.26862,0.26838,0.26862,0.2696,0.26984,0.2696,0.26886,0.26764,0.26813,0.27057,0.27692,0.30574,0.32552,0.35165,0.3873,0.47326,0.5177,0.55946,0.59756,0.65885,0.68181,0.69988,0.71184,0.72503,0.72967,0.73284,0.73431,0.73358,0.73162,0.72845,0.72405,0.71038,0.70183,0.69231,0.68107,0.65372,0.63858,0.62271,0.60684,0.57607,0.56166,0.54799,0.53651,0.51526,0.50476,0.49524,0.48669,0.47179,0.46569,0.46032,0.45495,0.44298,0.43761,0.43297,0.42808,0.41734
142,77,0.41197,0.40708,0.39707,0.39145,0.38584,0.38022,0.37558,0.36654,0.36093,0.35482,0.34872,0.33773,0.33309,0.32845,0.32405,0.31477,0.31136,0.30842,0.30476,0.29768,0.29426,0.29109,0.28816,0.28303,0.28059,0.27814,0.27668,0.27399,0.27204,0.26984,0.26764,0.263,0.26105,0.25983,0.2591,0.25934,0.26007,0.26056,0.26081,0.26081,0.26081,0.26081,0.26081,0.26081,0.26081,0.26105,0.26203,0.26496,0.26593,0.26667,0.2674,0.26716,0.26667,0.26618,0.26667,0.27497,0.28425,0.29963,0.32259,0.39121,0.43443,0.48059,0.52723,0.61416,0.65177,0.68449,0.70891,0.74505,0.76093,0.77411,0.78462,0.79731,0.80073,0.80244,0.80269,0.8,0.79585,0.79096,0.7851,0.76801,0.75629,0.74261,0.72723,0.69304,0.67497,0.65665,0.64005,0.60928,0.59365,0.57827,0.56386,0.53871,0.52821,0.51893,0.51038,0.49548,0.48938,0.48303,0.47619,0.46252,0.45641,0.45055,0.44444,0.43272,0.42686,0.42051,0.41514,0.40464,0.39853,0.39243,0.38584,0.37216,0.36532,0.35873,0.35238,0.34188,0.33773,0.33284,0.32747,0.31697,0.31184,0.3072,0.30305,0.29548,0.29182,0.2884,0.28645,0.28376,0.28156,0.27937,0.27717,0.27228,0.27033,0.26862,0.26691,0.26422,0.26349,0.26227,0.26129,0.25983,0.25958,0.25958,0.2591,0.25739,0.2569,0.25665,0.25714,0.25885,0.2591,0.25934,0.25983,0.26129,0.26203,0.26276,0.263,0.26325,0.26374,0.26374,0.263,0.26154,0.25958,0.25714,0.25665,0.2591,0.26129,0.26349,0.26593,0.27009,0.27131,0.27204,0.27204,0.27204,0.2735,0.27692,0.284,0.31233,0.33187,0.35946,0.39316,0.46984,0.50842,0.54505,0.57851,0.63321,0.65446,0.67228,0.68498,0.70232,0.70989,0.71624,0.72088,0.72576,0.72601,0.72503,0.72259,0.71355,0.70647,0.69817,0.68889,0.66618
142,77,0.65299,0.63858,0.62344,0.59219,0.5768,0.56313,0.55092,0.52698,0.516,0.50598,0.49621,0.47912,0.47131,0.46422,0.45788,0.44762,0.44322,0.43858,0.43419,0.42515,0.42027,0.41514,0.41001,0.4,0.39512,0.39121,0.38755,0.37753,0.37216,0.36679,0.36166,0.35116,0.34603,0.34115,0.33651,0.32821,0.32552,0.32234,0.31868,0.31087,0.30696,0.30354,0.30037,0.29426,0.29206,0.29084,0.29035,0.28816,0.28694,0.28547,0.284,0.2801,0.27814,0.27619,0.27448,0.27302,0.27326,0.27302,0.27253,0.27155,0.27106,0.27082,0.27057,0.27066,0.27082,0.27082,0.27155,0.27375,0.27473,0.27546,0.27619,0.27668,0.27668,0.27668,0.27668,0.27668,0.27717,0.27814,0.27863,0.27888,0.27888,0.27888,0.27888,0.28034,0.28278,0.28767,0.29475,0.3221,0.3453,0.37436,0.40757,0.4801,0.51526,0.5475,0.57558,0.62051,0.63541,0.64591,0.65568,0.67057,0.67595,0.67961,0.6823,0.68449,0.68352,0.68156,0.67814,0.66789,0.66129,0.65372,0.64493,0.62393,0.61221,0.59976,0.58706,0.56215,0.55165,0.54188,0.53211,0.5138,0.50525,0.49719,0.48962,0.47643,0.47057,0.46496,0.46007,0.45079,0.44591,0.44078,0.43565,0.42466,0.41905,0.41392,0.40855,0.39805,0.3939,0.39023,0.38608,0.37607,0.37045,0.36508,0.35995,0.35263,0.35238,0.35556,0.36142,0.38486,0.40415,0.42735,0.45324,0.50672,0.53187,0.55458,0.57411,0.60366,0.61245,0.61783,0.62247,0.62906,0.63053,0.63101,0.63053,0.62662,0.62295,0.61783,0.61587,0.60952,0.60098,0.59048,0.57851,0.55238,0.53895,0.52527,0.5116,0.48547,0.47473,0.46545,0.45592,0.43883,0.43126,0.42466,0.41905,0.41026,0.40635,0.40244,0.39902,0.3917,0.38706,0.38217,0.37705,0.36777,0.36313,0.35824,0.35311,0.34408,0.34042,0.33602,0.33114,0.32039
142,77,0.46935,0.50232,0.53333,0.58584,0.60684,0.62198,0.6337,0.65495,0.66349,0.67082,0.67668,0.68425,0.6862,0.68669,0.68596,0.67985,0.67473,0.66838,0.66081,0.64127,0.63028,0.61832,0.60611,0.58217,0.5707,0.55995,0.55018,0.53089,0.52186,0.51282,0.50452,0.48962,0.48278,0.47668,0.47106,0.46105,0.45714,0.45299,0.4486,0.43907,0.43443,0.42979,0.42491,0.41416,0.40879,0.40415,0.4,0.39121,0.38632,0.3812,0.37582,0.36532,0.3602,0.35556,0.35116,0.34408,0.34115,0.33773,0.33407,0.32625,0.32234,0.31844,0.31502,0.3094,0.30672,0.30476,0.3033,0.29939,0.29744,0.29548,0.29353,0.2906,0.28913,0.28767,0.28645,0.28425,0.28352,0.2823,0.28107,0.27839,0.27717,0.2757,0.27473,0.2735,0.27302,0.27326,0.2735,0.27228,0.27155,0.27082,0.27009,0.26984,0.27009,0.27033,0.27033,0.27082,0.27155,0.27155,0.27131,0.27131,0.27131,0.27131,0.27131,0.27131,0.27131,0.27204,0.27302,0.27228,0.27179,0.27204,0.27399,0.28913,0.30452,0.32601,0.35336,0.41538,0.44469,0.4779,0.5116,0.57314,0.59976,0.62344,0.6442,0.67766,0.69109,0.70037,0.70672,0.71941,0.72454,0.72845,0.73089,0.73211,0.73065,0.72772,0.72308,0.70916,0.70037,0.69035,0.67937,0.65495,0.64225,0.62906,0.61587,0.59048,0.57851,0.56825,0.55873,0.54042,0.53211,0.52405,0.51648,0.5033,0.49744,0.49206,0.48694,0.4779,0.47326,0.46813,0.46276,0.45201,0.4464,0.44029,0.43443,0.42247,0.41661,0.41172,0.40733,0.39731,0.39219,0.38657,0.38095,0.37021,0.36484,0.35946,0.35433,0.34286,0.33333,0.32625,0.32063,0.3116,0.30769,0.30403,0.30061,0.29499,0.29255,0.29109,0.28962,0.28498,0.28181,0.27863,0.2757,0.27082,0.26886,0.26716,0.26569,0.26471,0.26349,0.26178,0.26007,0.25739
142,77,0.25641,0.25543,0.25446,0.25201,0.25104,0.25079,0.25104,0.25104,0.25104,0.25104,0.25055,0.25055,0.25104,0.25128,0.25128,0.2525,0.25275,0.2525,0.25226,0.25201,0.25177,0.25128,0.25104,0.25153,0.25299,0.25641,0.26276,0.2906,0.31404,0.34383,0.379,0.45861,0.49939,0.53871,0.57509,0.62662,0.65006,0.67204,0.69158,0.72332,0.73578,0.74628,0.75507,0.76752,0.77167,0.77289,0.77216,0.76972,0.76654,0.7619,0.7558,0.73822,0.72723,0.71502,0.70159,0.67448,0.65983,0.64469,0.62955,0.60098,0.58755,0.57509,0.56337,0.54335,0.5348,0.52747,0.52088,0.50769,0.50134,0.49548,0.48938,0.47717,0.47131,0.4652,0.4591,0.4486,0.44249,0.4359,0.42906,0.41416,0.40684,0.39951,0.39292,0.38071,0.3746,0.36947,0.36459,0.35385,0.34823,0.34286,0.33748,0.3265,0.32137,0.31673,0.31233,0.30598,0.30256,0.2989,0.29524,0.28816,0.28449,0.28083,0.27766,0.27253,0.27009,0.26862,0.26789,0.2652,0.26325,0.26325,0.26325,0.26325,0.25324,0.25153,0.25006,0.24933,0.24835,0.24713,0.24591,0.24347,0.24249,0.24176,0.24103,0.23956,0.23883,0.23883,0.23932,0.24029,0.24054,0.24029,0.2398,0.23907,0.23883,0.23883,0.23883,0.24103,0.242,0.24249,0.24274,0.24274,0.24249,0.24249,0.24249,0.24469,0.24786,0.25324,0.26252,0.29817,0.32576,0.35922,0.39731,0.47985,0.52039,0.55873,0.59389,0.64347,0.66569,0.68669,0.70598,0.73797,0.75092,0.76215,0.77118,0.78315,0.7851,0.78437,0.78339,0.77949,0.77558,0.76996,0.76288,0.74383,0.73187,0.71844,0.70354,0.67399,0.65812,0.64225,0.62686,0.59853,0.58095,0.56215,0.54823,0.52821,0.52063,0.51404,0.50769,0.49573,0.48987,0.48449,0.47912,0.46862,0.463,0.45739,0.45153,0.44078,0.43516,0.42955,0.42418,0.41319
142,77,0.40757,0.40757,0.39536,0.38315,0.37753,0.37241,0.36703,0.35629,0.35092,0.34554,0.34042,0.33114,0.32674,0.32259,0.31868,0.31331,0.31013,0.30672,0.30354,0.29719,0.29402,0.29084,0.28767,0.2823,0.28059,0.27961,0.27814,0.27473,0.27253,0.27057,0.26862,0.26471,0.263,0.26105,0.25934,0.25788,0.2569,0.25592,0.2547,0.25299,0.25226,0.25153,0.25079,0.24835,0.24762,0.24713,0.24591,0.24322,0.24274,0.24249,0.24225,0.24225,0.24225,0.24225,0.242,0.24274,0.24274,0.24371,0.24737,0.26691,0.28498,0.30965,0.33993,0.4127,0.44664,0.47741,0.51062,0.57314,0.60024,0.62393,0.64444,0.67643,0.68816,0.69768,0.70525,0.71111,0.71306,0.71502,0.71624,0.71526,0.71233,0.70818,0.70232,0.68596,0.67643,0.66593,0.65421,0.62906,0.61612,0.60317,0.59048,0.56679,0.55604,0.54579,0.53626,0.52063,0.5138,0.5072,0.5011,0.48962,0.48425,0.47912,0.47399,0.47399,0.45812,0.45324,0.44786,0.43614,0.43004,0.42393,0.41807,0.40586,0.39951,0.39316,0.38779,0.37753,0.37216,0.36654,0.36117,0.35043,0.3453,0.34042,0.33553,0.32576,0.3221,0.31893,0.31111,0.3072,0.30354,0.30012,0.29646,0.28962,0.28645,0.28376,0.28181,0.27839,0.27619,0.27375,0.27131,0.26593,0.26398,0.26227,0.26081,0.25763,0.25665,0.25617,0.25495,0.25153,0.24957,0.24786,0.24615,0.24322,0.24225,0.24127,0.24127,0.24127,0.24078,0.24029,0.2398,0.23907,0.23907,0.23907,0.23907,0.23907,0.24005,0.24103,0.24151,0.242,0.242,0.242,0.242,0.24176,0.24225,0.2442,0.2486,0.26813,0.28694,0.31258,0.34408,0.42076,0.46178,0.50232,0.54115,0.60977,0.63492,0.66276,0.69524,0.74212,0.75946,0.77387,0.78584,0.80415,0.8105,0.81514,0.81636,0.81465,0.81319,0.81026,0.80562,0.79194
142,77,0.78291,0.77241,0.7602,0.7326,0.71844,0.70379,0.6884,0.65714,0.64176,0.62735,0.61368,0.58926,0.57851,0.56899,0.56068,0.54628,0.53944,0.53309,0.52674,0.51429,0.50745,0.50061,0.49377,0.47937,0.47253,0.46618,0.45958,0.44493,0.43761,0.43004,0.42222,0.40806,0.40195,0.39658,0.39219,0.38291,0.37705,0.37021,0.36288,0.34774,0.3409,0.3348,0.32943,0.32063,0.3177,0.31526,0.31233,0.30549,0.30159,0.29792,0.29426,0.28669,0.28303,0.27937,0.27692,0.27375,0.27179,0.26984,0.26789,0.26325,0.26081,0.25812,0.25592,0.25177,0.25104,0.25055,0.24957,0.24713,0.24591,0.24444,0.24322,0.24054,0.23907,0.23761,0.23712,0.23639,0.23541,0.23419,0.23297,0.23199,0.23223,0.23223,0.23223,0.23223,0.23297,0.23394,0.23443,0.23492,0.23492,0.23492,0.23492,0.23492,0.23492,0.23492,0.2359,0.24151,0.24737,0.25763,0.27375,0.32674,0.36264,0.40293,0.44591,0.52698,0.55995,0.59487,0.62882,0.68816,0.71282,0.73407,0.75189,0.77973,0.79023,0.79902,0.80415,0.80952,0.81172,0.8127,0.81221,0.80659,0.80122,0.79414,0.78535,0.76313,0.75043,0.73602,0.72039,0.68767,0.67106,0.65495,0.63932,0.61074,0.5978,0.58608,0.57558,0.55751,0.54896,0.54066,0.5326,0.51844,0.51233,0.50647,0.50061,0.4884,0.48278,0.47692,0.47057,0.45739,0.45079,0.44396,0.43663,0.42271,0.41538,0.40806,0.40171,0.38926,0.38242,0.37558,0.36899,0.35678,0.35067,0.34481,0.33944,0.3304,0.32698,0.32283,0.31868,0.31013,0.30598,0.30159,0.29744,0.28938,0.28571,0.28205,0.27961,0.27546,0.27302,0.27033,0.26764,0.26178,0.2591,0.25641,0.25397,0.25055,0.24982,0.2486,0.24713,0.24396,0.24249,0.24103,0.2442,0.25153,0.25226,0.25201,0.25201,0.25226,0.25177,0.25153,0.25128,0.25079
142,77,0.25079,0.25055,0.25006,0.25006,0.25104,0.2525,0.25568,0.27228,0.28864,0.31087,0.33846,0.40464,0.44029,0.47546,0.50452,0.55531,0.57973,0.60171,0.62125,0.65226,0.66422,0.67424,0.68254,0.6928,0.69451,0.69646,0.69817,0.69866,0.69744,0.69475,0.6906,0.67839,0.67009,0.66081,0.65128,0.62979,0.61783,0.60537,0.59292,0.56825,0.55653,0.5453,0.53504,0.51795,0.51111,0.50427,0.49792,0.4862,0.48059,0.47521,0.4696,0.4591,0.45372,0.44835,0.44322,0.43321,0.42759,0.42198,0.41612,0.40488,0.39951,0.39414,0.38852,0.37851,0.37436,0.36972,0.36484,0.35458,0.34945,0.34432,0.33944,0.33016,0.32576,0.32161,0.31844,0.31282,0.3094,0.30598,0.30281,0.29621,0.2928,0.28987,0.28742,0.28352,0.28254,0.28083,0.27888,0.27448,0.27204,0.26984,0.26813,0.26447,0.26276,0.26178,0.26105,0.25836,0.2569,0.25543,0.25421,0.25153,0.25055,0.24982,0.24982,0.24908,0.24982,0.25006,0.24982,0.24957,0.24957,0.24957,0.24957,0.25031,0.25055,0.25104,0.25201,0.25275,0.25275,0.25275,0.25275,0.25495,0.25885,0.26593,0.27766,0.31404,0.33602,0.36459,0.39805,0.47082,0.50672,0.54042,0.57143,0.62491,0.64713,0.66349,0.67619,0.70134,0.71233,0.72161,0.72918,0.73968,0.74261,0.74408,0.74408,0.73968,0.7348,0.72967,0.72332,0.70696,0.69695,0.68596,0.67375,0.64737,0.63321,0.62002,0.60733,0.58169,0.56972,0.55849,0.54799,0.52943,0.52137,0.5138,0.50696,0.49597,0.49084,0.48547,0.47985,0.46862,0.46276,0.45665,0.45055,0.43761,0.43126,0.42564,0.42027,0.4083,0.40195,0.3956,0.38926,0.37656,0.37021,0.36386,0.35751,0.34579,0.34115,0.33626,0.33138,0.32259,0.31795,0.31355,0.30965,0.30232,0.2989,0.29621,0.29402,0.28938,0.28669,0.284,0.284,0.27546
142,77,0.27277,0.27009,0.26545,0.26398,0.263,0.26154,0.25958,0.25617,0.25421,0.2525,0.25079,0.24811,0.24713,0.24713,0.24737,0.24689,0.24615,0.24542,0.24493,0.24371,0.24322,0.24274,0.24225,0.242,0.24249,0.24249,0.24225,0.24127,0.24078,0.24054,0.24054,0.24591,0.25324,0.26276,0.27595,0.32063,0.35067,0.38388,0.41905,0.48816,0.51966,0.54823,0.57363,0.61221,0.62491,0.63785,0.65006,0.67009,0.6779,0.68449,0.68962,0.69548,0.69621,0.69475,0.69158,0.68205,0.67521,0.66691,0.65739,0.63565,0.62369,0.61172,0.59976,0.57802,0.56752,0.55727,0.5475,0.52943,0.52088,0.51306,0.50574,0.49255,0.48694,0.4823,0.4779,0.46886,0.46471,0.46032,0.45568,0.44567,0.44005,0.43419,0.42808,0.41709,0.41099,0.40464,0.39829,0.38632,0.38022,0.3746,0.36923,0.35824,0.35311,0.34872,0.34505,0.33626,0.33138,0.3265,0.32161,0.31258,0.30842,0.30476,0.3011,0.29621,0.29353,0.2906,0.28767,0.28181,0.27912,0.27643,0.27399,0.26935,0.2674,0.26642,0.26569,0.26276,0.26105,0.25934,0.25763,0.25421,0.25299,0.25201,0.25128,0.25153,0.25128,0.25104,0.25055,0.24957,0.24957,0.24957,0.24933,0.24908,0.24884,0.24908,0.24957,0.24933,0.24957,0.25079,0.25372,0.2696,0.28498,0.30598,0.3326,0.38632,0.41905,0.45397,0.48864,0.5536,0.58217,0.60781,0.63077,0.66838,0.68327,0.69377,0.70159,0.71697,0.72332,0.72821,0.73382,0.73455,0.73407,0.73211,0.72894,0.7177,0.71038,0.70208,0.69255,0.67033,0.65739,0.64371,0.62979,0.6022,0.58926,0.57753,0.56679,0.54603,0.53651,0.52772,0.5199,0.50574,0.49939,0.49328,0.48718,0.47619,0.47033,0.46422,0.45812,0.44591,0.44005,0.43394,0.42759,0.41514,0.40855,0.40269,0.39731,0.38584,0.37998,0.37411,0.36825,0.35897
142,77,0.35726,0.35336,0.34847,0.34017,0.33602,0.33211,0.32796,0.3199,0.31624,0.31282,0.30916,0.30232,0.2989,0.29646,0.29426,0.2884,0.28571,0.28303,0.28034,0.27546,0.27326,0.27082,0.26862,0.26642,0.2652,0.26374,0.26227,0.25885,0.25714,0.25568,0.25446,0.2525,0.25177,0.25177,0.25226,0.25201,0.25201,0.25226,0.25275,0.25324,0.25299,0.2525,0.25201,0.25299,0.25299,0.25299,0.25275,0.25226,0.2525,0.25397,0.25739,0.27546,0.28889,0.30574,0.32943,0.39219,0.42833,0.4652,0.50085,0.56557,0.59365,0.61856,0.64078,0.66984,0.68254,0.69451,0.70501,0.72161,0.72772,0.7326,0.73602,0.73846,0.73675,0.73333,0.72943,0.71746,0.7094,0.70012,0.68987,0.66618,0.65324,0.6398,0.62662,0.60269,0.59096,0.579,0.56728,0.54554,0.53578,0.52674,0.51844,0.50427,0.49841,0.49304,0.48767,0.47692,0.47106,0.4652,0.4591,0.44615,0.4398,0.43346,0.42711,0.42711,0.4105,0.4044,0.39805,0.38535,0.37924,0.37338,0.36752,0.3558,0.35092,0.34652,0.34164,0.33138,0.32625,0.32137,0.31697,0.30842,0.30427,0.30037,0.2967,0.29255,0.29035,0.28767,0.28498,0.27985,0.27741,0.27473,0.27204,0.26691,0.26545,0.26447,0.263,0.26081,0.25983,0.25885,0.25788,0.25592,0.25495,0.25397,0.25299,0.25348,0.25324,0.25299,0.2525,0.25153,0.25079,0.25031,0.25006,0.25006,0.25104,0.2525,0.25324,0.25348,0.25324,0.25324,0.25372,0.25714,0.26203,0.27082,0.284,0.3177,0.3431,0.37338,0.40708,0.4779,0.51184,0.54359,0.57241,0.62198,0.6398,0.65372,0.66789,0.6928,0.70281,0.71087,0.7177,0.72723,0.72967,0.73065,0.7304,0.7243,0.71966,0.7138,0.70672,0.6884,0.6779,0.66642,0.65446,0.62979,0.61856,0.60781,0.59707,0.57656,0.56703,0.55775,0.54872,0.53138
142,77,0.52332,0.51551,0.51551,0.49377,0.48791,0.48278,0.47668,0.46374,0.45714,0.45055,0.44396,0.43077,0.42466,0.41905,0.41294,0.4,0.39341,0.38657,0.37973,0.36679,0.36068,0.35482,0.34896,0.34042,0.33626,0.33187,0.32772,0.31941,0.31502,0.31062,0.30598,0.30183,0.29792,0.29524,0.29304,0.28718,0.284,0.28107,0.27839,0.2735,0.27131,0.26935,0.2674,0.26545,0.26398,0.26227,0.26056,0.25739,0.25617,0.25519,0.25446,0.25324,0.2525,0.25275,0.25324,0.25324,0.25324,0.25324,0.25299,0.25275,0.25275,0.25275,0.25275,0.25446,0.25495,0.25495,0.25495,0.25788,0.26276,0.27106,0.284,0.3265,0.35556,0.38339,0.41123,0.47766,0.51136,0.5431,0.57216,0.62198,0.64274,0.66105,0.67692,0.69695,0.70574,0.71355,0.72015,0.72967,0.7326,0.73407,0.73382,0.72845,0.72332,0.71648,0.70818,0.6884,0.67668,0.66422,0.65079,0.62271,0.60855,0.59487,0.58193,0.55971,0.54872,0.53797,0.52796,0.51013,0.50281,0.49646,0.4906,0.48034,0.47521,0.47057,0.46618,0.45543,0.44957,0.44347,0.43712,0.42466,0.41856,0.4127,0.40708,0.3978,0.39292,0.38779,0.38242,0.37143,0.36581,0.35995,0.35409,0.34212,0.33675,0.33236,0.32845,0.31966,0.31575,0.31184,0.30769,0.30085,0.29768,0.29475,0.29158,0.28791,0.28571,0.28327,0.28083,0.27668,0.27473,0.27253,0.27033,0.26618,0.26447,0.26349,0.26325,0.26252,0.26203,0.26203,0.26227,0.26203,0.26178,0.26129,0.26081,0.26203,0.26252,0.26276,0.26276,0.26276,0.26276,0.26276,0.26276,0.26276,0.26227,0.26252,0.26276,0.26398,0.26691,0.2735,0.28474,0.32381,0.3514,0.38291,0.41734,0.47668,0.50794,0.53919,0.56825,0.61783,0.6381,0.65568,0.67057,0.69353,0.70232,0.70794,0.71111,0.7177,0.71941,0.71966,0.71868,0.7116
142,77,0.70598,0.6989,0.69035,0.67057,0.65958,0.64786,0.63541,0.60977,0.59707,0.58462,0.57485,0.55775,0.54969,0.54212,0.53407,0.51868,0.51136,0.50452,0.49817,0.48596,0.47985,0.47424,0.46862,0.45812,0.45275,0.44737,0.442,0.43053,0.42442,0.41856,0.41294,0.40049,0.39536,0.39048,0.38486,0.37216,0.36606,0.35995,0.35433,0.34408,0.33944,0.33504,0.33065,0.3243,0.32112,0.3177,0.31429,0.30696,0.30354,0.30037,0.29719,0.29133,0.28987,0.28889,0.28742,0.28352,0.28156,0.27961,0.27766,0.27399,0.27253,0.27082,0.26911,0.26813,0.2674,0.26642,0.26545,0.26325,0.26252,0.26203,0.26178,0.26154,0.26203,0.263,0.26349,0.26374,0.26325,0.26252,0.26178,0.26056,0.26032,0.26081,0.263,0.27473,0.28669,0.30452,0.32845,0.39194,0.42906,0.46764,0.50598,0.57729,0.60488,0.62735,0.65006,0.69109,0.70842,0.72332,0.73602,0.75556,0.76264,0.76777,0.77192,0.7707,0.76948,0.76777,0.76484,0.75482,0.74774,0.73895,0.72869,0.70476,0.69231,0.67961,0.66593,0.63785,0.62418,0.61123,0.59902,0.57656,0.5663,0.55629,0.54725,0.53162,0.52454,0.5177,0.51111,0.49792,0.49133,0.48474,0.47814,0.46545,0.45983,0.45495,0.44933,0.43687,0.43004,0.42295,0.41612,0.40269,0.39634,0.39023,0.38413,0.3746,0.36972,0.36459,0.35946,0.34945,0.34457,0.33968,0.33504,0.32625,0.32283,0.32015,0.31697,0.30989,0.30623,0.30256,0.29866,0.29109,0.28742,0.28425,0.28132,0.27839,0.27668,0.27448,0.27228,0.26886,0.26716,0.2652,0.26349,0.26105,0.26081,0.26105,0.26105,0.26105,0.26129,0.26129,0.26129,0.26129,0.26129,0.26129,0.26129,0.26227,0.26252,0.26374,0.26642,0.28205,0.29768,0.31966,0.3475,0.41709,0.45031,0.48132,0.51551,0.58266,0.6127,0.63956,0.663,0.7011
142,77,0.716,0.72845,0.73651,0.74774,0.75263,0.75653,0.75922,0.76117,0.7602,0.75775,0.75409,0.74212,0.73382,0.7243,0.71331,0.67375,0.65568,0.63932,0.62344,0.59341,0.57924,0.56606,0.55458,0.53333,0.52308,0.51331,0.50427,0.48864,0.48205,0.47595,0.47033,0.45934,0.45495,0.45079,0.44615,0.43565,0.42955,0.42344,0.41758,0.40586,0.40024,0.39438,0.38926,0.37973,0.37411,0.3685,0.36288,0.35165,0.34603,0.34017,0.33431,0.32332,0.31917,0.31575,0.31209,0.30476,0.30085,0.29695,0.29304,0.28547,0.28205,0.27888,0.27668,0.27204,0.2696,0.26691,0.26422,0.25885,0.25641,0.25421,0.25201,0.24786,0.24689,0.2464,0.24542,0.24322,0.242,0.24078,0.23932,0.2359,0.23419,0.23321,0.23321,0.2337,0.23346,0.23346,0.23346,0.23321,0.23297,0.23297,0.23321,0.23858,0.24493,0.25495,0.27106,0.32259,0.35678,0.39463,0.43419,0.5116,0.54676,0.57851,0.60293,0.642,0.65958,0.67497,0.68816,0.70794,0.71502,0.72063,0.72454,0.72821,0.72723,0.72454,0.72161,0.71282,0.70672,0.69915,0.69035,0.66813,0.65519,0.64127,0.62784,0.60147,0.58803,0.57485,0.56264,0.53944,0.52869,0.51868,0.5094,0.49231,0.48523,0.47888,0.47277,0.46105,0.45519,0.44933,0.44347,0.43101,0.42442,0.41783,0.41221,0.40098,0.39463,0.38852,0.38242,0.36947,0.36313,0.35653,0.35018,0.33797,0.33309,0.32894,0.32405,0.31429,0.30965,0.30525,0.3011,0.29304,0.28962,0.28645,0.28425,0.27937,0.27619,0.27277,0.2696,0.26422,0.26178,0.25934,0.2569,0.25348,0.25275,0.25128,0.24933,0.2442,0.242,0.24103,0.24249,0.25739,0.27277,0.29451,0.31746,0.3746,0.40977,0.44615,0.48205,0.54652,0.57387,0.59805,0.61856,0.64811,0.65714,0.66593,0.67399,0.68669,0.69084,0.69353,0.69475,0.69231
142,77,0.3707,0.3707,0.3707,0.3707,0.3707,0.3707,0.3707,0.3707,0.3707,0.3707,0.3707,0.35971,0.3558,0.35165,0.34725,0.33919,0.33504,0.33089,0.32698,0.31917,0.31477,0.31136,0.30842,0.30061,0.30403,0.3116,0.31355,0.31038,0.30769,0.30476,0.30183,0.29744,0.29597,0.29402,0.29158,0.28645,0.28425,0.28205,0.27985,0.27595,0.27399,0.27302,0.27277,0.27033,0.26911,0.26813,0.26716,0.26642,0.26667,0.26716,0.2674,0.26813,0.26886,0.26862,0.26789,0.26642,0.26593,0.26642,0.26911,0.28742,0.30549,0.32601,0.35018,0.41856,0.45739,0.4967,0.53431,0.59976,0.62711,0.65031,0.66984,0.69695,0.70501,0.71258,0.71917,0.72869,0.73162,0.73284,0.73284,0.72943,0.72576,0.72063,0.71453,0.69963,0.69035,0.67961,0.66764,0.64029,0.6254,0.61026,0.59536,0.56874,0.55727,0.54554,0.53431,0.51429,0.50525,0.49695,0.48938,0.47619,0.47057,0.46593,0.46178,0.45275,0.44786,0.44298,0.4381,0.42759,0.42222,0.41661,0.41123,0.40171,0.39731,0.39219,0.38681,0.37607,0.37094,0.36557,0.35995,0.34945,0.34432,0.34042,0.33724,0.32918,0.32454,0.32015,0.316,0.30794,0.30427,0.30085,0.29768,0.2928,0.29158,0.28962,0.28718,0.28278,0.28059,0.27839,0.27619,0.27228,0.27082,0.27033,0.27033,0.26911,0.26838,0.26764,0.26691,0.26593,0.2652,0.26471,0.26447,0.26642,0.26716,0.2674,0.26764,0.26764,0.26764,0.26764,0.26789,0.27033,0.27497,0.28181,0.29206,0.32967,0.35726,0.3895,0.42515,0.4989,0.53382,0.56581,0.59438,0.63297,0.64933,0.66422,0.67692,0.69573,0.70256,0.70769,0.71136,0.71404,0.71355,0.71111,0.70745,0.69866,0.69304,0.6862,0.6779,0.65714,0.64518,0.63223,0.6188,0.59389,0.58095,0.56752,0.55433,0.53016,0.51941,0.50965,0.50085,0.48571
142,77,0.47888,0.47326,0.46789,0.45714,0.45226,0.44737,0.44249,0.43248,0.42759,0.42271,0.41734,0.40879,0.40415,0.39951,0.39487,0.38559,0.38046,0.37534,0.37021,0.36044,0.3558,0.35214,0.34921,0.34164,0.33773,0.33382,0.32967,0.32161,0.31795,0.3116,0.30403,0.2967,0.29402,0.29182,0.28987,0.2862,0.28449,0.28254,0.28034,0.27546,0.2735,0.27277,0.27253,0.27106,0.27082,0.27057,0.27057,0.27057,0.27057,0.27057,0.27057,0.27204,0.27253,0.27277,0.27326,0.2735,0.27326,0.27302,0.27277,0.27253,0.27253,0.27302,0.27375,0.27448,0.27521,0.27692,0.28132,0.30183,0.32015,0.34408,0.37314,0.43028,0.46374,0.49817,0.53138,0.58974,0.61343,0.6337,0.65055,0.67546,0.684,0.68889,0.69158,0.69573,0.6967,0.6967,0.69573,0.69011,0.68498,0.67863,0.67033,0.65153,0.64054,0.62857,0.61612,0.59048,0.57851,0.56703,0.55629,0.53602,0.52698,0.51941,0.51282,0.50037,0.49475,0.48962,0.48449,0.47521,0.47057,0.46593,0.46105,0.45299,0.4486,0.44396,0.43956,0.43028,0.42515,0.41978,0.41416,0.40317,0.39878,0.39512,0.39072,0.38144,0.3768,0.37192,0.36679,0.35678,0.35165,0.34676,0.34188,0.33529,0.33211,0.32894,0.32576,0.3199,0.31697,0.31404,0.31111,0.30598,0.30452,0.30354,0.30183,0.29792,0.29597,0.29426,0.29255,0.2906,0.28987,0.28913,0.2884,0.28913,0.28913,0.28889,0.2884,0.28742,0.28669,0.2862,0.28571,0.28498,0.28596,0.28718,0.28816,0.28864,0.28816,0.28791,0.28791,0.29182,0.29817,0.30965,0.32723,0.3707,0.40171,0.43736,0.4757,0.5514,0.58559,0.61636,0.64298,0.68523,0.69866,0.70867,0.71819,0.73333,0.73895,0.7431,0.74554,0.74652,0.7453,0.74286,0.73944,0.72796,0.72063,0.71209,0.70232,0.67937,0.67937,0.65299,0.63907,0.61026
142,77,0.59756,0.58584,0.57411,0.57411,0.54139,0.53211,0.52357,0.5094,0.50354,0.49792,0.49255,0.48278,0.47741,0.47228,0.46691,0.4569,0.45201,0.44713,0.442,0.4315,0.42637,0.42149,0.41612,0.40488,0.39927,0.39365,0.38828,0.37778,0.37216,0.36654,0.36117,0.35311,0.34921,0.3453,0.337,0.31917,0.31355,0.30867,0.30427,0.29695,0.29451,0.29255,0.29011,0.28523,0.28278,0.28034,0.2779,0.27253,0.27033,0.26838,0.26642,0.26569,0.26545,0.26496,0.26422,0.26105,0.25934,0.25763,0.25617,0.25421,0.25421,0.2547,0.2547,0.25348,0.25275,0.25226,0.25201,0.25201,0.25201,0.25226,0.2525,0.25397,0.25397,0.25372,0.25324,0.25348,0.25592,0.26203,0.27302,0.31404,0.33968,0.36777,0.40293,0.48156,0.52039,0.55653,0.58901,0.64249,0.66325,0.68083,0.69524,0.7116,0.71819,0.72381,0.72821,0.73333,0.73382,0.73309,0.73089,0.72308,0.71673,0.7094,0.70085,0.68034,0.66813,0.65519,0.64151,0.61343,0.6,0.58706,0.57558,0.55458,0.54432,0.5348,0.52601,0.51062,0.50403,0.49817,0.49231,0.48156,0.47692,0.47253,0.46813,0.45836,0.45299,0.44762,0.44225,0.43101,0.42564,0.42002,0.41514,0.40488,0.39902,0.39316,0.38755,0.37631,0.3707,0.36532,0.3602,0.35018,0.34652,0.34359,0.33993,0.33187,0.32772,0.32332,0.31941,0.3116,0.30769,0.30427,0.30208,0.29817,0.29548,0.29304,0.29084,0.28742,0.28596,0.28449,0.28278,0.27937,0.27839,0.27814,0.27741,0.27521,0.27399,0.27277,0.27179,0.27009,0.2696,0.26911,0.26935,0.27057,0.27082,0.27082,0.27082,0.27082,0.27082,0.27082,0.27082,0.27082,0.27155,0.27253,0.27326,0.27888,0.28645,0.29866,0.31648,0.36899,0.40269,0.43907,0.47155,0.53236,0.56288,0.59096,0.61563,0.65495,0.67009,0.6823,0.69206,0.70549
142,77,0.70867,0.70867,0.71087,0.71062,0.70916,0.70647,0.70256,0.69084,0.68278,0.67326,0.663,0.6398,0.62637,0.61221,0.5978,0.56972,0.55678,0.54481,0.53382,0.51453,0.50696,0.50085,0.49499,0.484,0.47888,0.47399,0.46911,0.45788,0.45372,0.44908,0.44493,0.43639,0.43223,0.42784,0.42369,0.41392,0.40855,0.40293,0.39756,0.38877,0.38486,0.3812,0.3768,0.36728,0.36264,0.35824,0.35409,0.34628,0.34237,0.33846,0.33529,0.32918,0.32576,0.32234,0.31917,0.31331,0.31087,0.30842,0.30598,0.30037,0.29817,0.29695,0.29524,0.29182,0.29035,0.28913,0.28791,0.28547,0.28449,0.28376,0.284,0.28474,0.28449,0.28425,0.28376,0.28278,0.28205,0.28107,0.2801,0.27863,0.27888,0.27985,0.28156,0.2928,0.30525,0.32405,0.34896,0.41441,0.45177,0.48987,0.5221,0.57851,0.60586,0.63053,0.65201,0.68474,0.69695,0.70672,0.71453,0.72357,0.72479,0.72601,0.7265,0.72527,0.72357,0.72088,0.71673,0.70403,0.69548,0.68547,0.67497,0.65153,0.6381,0.62418,0.61026,0.58291,0.56996,0.55775,0.54652,0.52821,0.52088,0.5138,0.50745,0.49548,0.49011,0.48474,0.47961,0.46862,0.463,0.45739,0.4525,0.44347,0.43834,0.43297,0.42735,0.41612,0.41074,0.40513,0.39951,0.3895,0.38584,0.38193,0.37851,0.37582,0.37875,0.38559,0.39634,0.42955,0.45055,0.47326,0.49353,0.53138,0.55018,0.56728,0.58242,0.60562,0.61416,0.621,0.62589,0.63101,0.63077,0.63028,0.62882,0.62344,0.61978,0.6149,0.60928,0.59487,0.58535,0.5746,0.56386,0.54115,0.52845,0.51526,0.50256,0.47912,0.46886,0.45958,0.45177,0.43956,0.43492,0.43053,0.42662,0.41954,0.41636,0.41294,0.40952,0.40244,0.39853,0.39463,0.39121,0.38413,0.37998,0.37582,0.37167,0.36337,0.35873,0.35433,0.35018,0.34237
142,77,0.61538,0.6398,0.68181,0.6989,0.71331,0.72527,0.73529,0.74969,0.75433,0.7558,0.75556,0.75482,0.75311,0.75043,0.74676,0.73504,0.72625,0.71575,0.70354,0.67643,0.663,0.6486,0.63443,0.62047,0.60708,0.59463,0.58315,0.56313,0.55385,0.54554,0.53846,0.52674,0.52112,0.51575,0.51038,0.49915,0.49353,0.48645,0.47985,0.4696,0.46447,0.45983,0.4547,0.44298,0.43687,0.43077,0.42418,0.41099,0.40488,0.39243,0.37778,0.36288,0.35751,0.35263,0.34847,0.34042,0.33675,0.33333,0.33016,0.32479,0.32283,0.32015,0.31746,0.31209,0.3094,0.30696,0.30452,0.30012,0.29817,0.29646,0.29548,0.29353,0.29231,0.29084,0.28913,0.28596,0.28425,0.28254,0.28107,0.2801,0.2801,0.27985,0.27912,0.27741,0.27668,0.27595,0.27521,0.27448,0.27424,0.27399,0.27399,0.27497,0.27521,0.27521,0.27521,0.27473,0.27448,0.27448,0.27741,0.28156,0.2884,0.29988,0.33944,0.36679,0.3978,0.43077,0.46422,0.5265,0.5536,0.57778,0.59585,0.62418,0.63687,0.64811,0.65788,0.67302,0.67839,0.68254,0.68571,0.68742,0.68571,0.684,0.68156,0.6735,0.66764,0.66056,0.65201,0.6315,0.62002,0.60781,0.59609,0.57265,0.56044,0.54896,0.53797,0.51746,0.50842,0.50012,0.49255,0.47766,0.47131,0.46691,0.46227,0.45299,0.4486,0.4442,0.43956,0.43004,0.42515,0.42027,0.41612,0.40757,0.40269,0.3978,0.39292,0.38291,0.37753,0.37216,0.36703,0.358,0.35433,0.35043,0.34628,0.33822,0.33407,0.33016,0.32259,0.31917,0.316,0.31306,0.31111,0.30745,0.30525,0.30305,0.30085,0.29646,0.29451,0.29231,0.29011,0.28645,0.28547,0.284,0.28254,0.27985,0.27839,0.27717,0.27595,0.2735,0.27228,0.27106,0.27057,0.26984,0.26886,0.26789,0.26691,0.2652,0.26447,0.26398,0.26374,0.26422
142,77,0.26496,0.26545,0.26545,0.26496,0.26447,0.26447,0.26447,0.26325,0.26447,0.26789,0.27326,0.29475,0.31331,0.33748,0.3663,0.43248,0.46642,0.4989,0.52869,0.57631,0.59292,0.60904,0.62393,0.64835,0.65788,0.66569,0.67228,0.68132,0.68425,0.68498,0.68425,0.68156,0.67888,0.67497,0.66984,0.65592,0.64713,0.63712,0.62589,0.60171,0.58999,0.57729,0.56166,0.53822,0.52796,0.5177,0.50794,0.49035,0.48278,0.47643,0.47082,0.46056,0.45568,0.45104,0.45079,0.45079,0.44713,0.44249,0.43736,0.42784,0.42369,0.4188,0.41343,0.40244,0.39683,0.39121,0.38535,0.37216,0.36557,0.3619,0.358,0.34921,0.34432,0.33944,0.33455,0.32527,0.32088,0.31697,0.31282,0.30623,0.30427,0.30159,0.29866,0.2928,0.29035,0.28816,0.28596,0.28156,0.27937,0.2779,0.27619,0.27253,0.27082,0.26862,0.26667,0.26422,0.26252,0.26105,0.26007,0.25934,0.26007,0.26007,0.26007,0.25739,0.25665,0.25543,0.25421,0.25153,0.25079,0.25079,0.25104,0.26032,0.27717,0.29158,0.30623,0.38462,0.41709,0.4525,0.49792,0.55922,0.58535,0.60879,0.62882,0.66007,0.67179,0.68107,0.6884,0.69719,0.69963,0.69988,0.69988,0.69744,0.69597,0.69231,0.68596,0.67009,0.66032,0.64908,0.63663,0.61197,0.59853,0.58486,0.57143,0.54652,0.53529,0.52479,0.51526,0.49817,0.49133,0.48547,0.47961,0.46862,0.46325,0.45812,0.44811,0.44322,0.43834,0.43297,0.42784,0.4188,0.41392,0.40855,0.40293,0.3917,0.38559,0.37949,0.37338,0.36142,0.35653,0.35214,0.3475,0.33797,0.33358,0.32943,0.32527,0.31648,0.31258,0.30891,0.30525,0.30037,0.29768,0.29475,0.29182,0.2862,0.28376,0.28132,0.27912,0.27497,0.27375,0.27302,0.27179,0.26911,0.26764,0.26618,0.26447,0.26081,0.2591,0.25763,0.25641,0.25592
142,77,0.25543,0.2547,0.25397,0.2525,0.25201,0.25153,0.25104,0.25079,0.25128,0.25226,0.25226,0.25177,0.25128,0.25079,0.25031,0.25055,0.25324,0.2591,0.26764,0.30012,0.3265,0.35849,0.39487,0.4735,0.51209,0.54823,0.5812,0.63663,0.65617,0.67155,0.68718,0.71355,0.72381,0.73236,0.73919,0.74872,0.75116,0.75214,0.75092,0.74457,0.74017,0.73455,0.72772,0.71013,0.6989,0.68669,0.67302,0.64298,0.62857,0.61514,0.60122,0.57363,0.56068,0.54847,0.537,0.51673,0.50769,0.49988,0.49328,0.48132,0.4757,0.47033,0.46471,0.4525,0.44664,0.44078,0.43492,0.42247,0.41685,0.41197,0.40635,0.39438,0.38852,0.38266,0.3768,0.36606,0.36044,0.35482,0.35043,0.34212,0.337,0.33187,0.32674,0.31697,0.31282,0.30867,0.30476,0.29744,0.29475,0.29255,0.28987,0.28449,0.28156,0.27863,0.27546,0.26984,0.26716,0.26496,0.26374,0.26227,0.26105,0.25958,0.25812,0.25495,0.25372,0.2525,0.25153,0.25006,0.25006,0.25031,0.25031,0.24957,0.24908,0.24884,0.2486,0.2486,0.24835,0.24811,0.2486,0.24982,0.25031,0.25177,0.25543,0.27521,0.29377,0.31868,0.34945,0.42393,0.45885,0.49084,0.52503,0.58926,0.61685,0.64103,0.66203,0.69475,0.70745,0.71795,0.7243,0.7326,0.73675,0.73993,0.74188,0.74139,0.73871,0.73455,0.72894,0.71404,0.70501,0.69475,0.68303,0.65641,0.64151,0.62637,0.61099,0.58193,0.5685,0.5558,0.54481,0.52527,0.516,0.5072,0.49915,0.48474,0.47839,0.47253,0.46716,0.45617,0.45104,0.44615,0.44103,0.43004,0.42418,0.41807,0.41221,0.4,0.39365,0.3873,0.38217,0.37338,0.3685,0.36337,0.358,0.34701,0.3409,0.33504,0.32991,0.32039,0.31697,0.31404,0.31062,0.3033,0.29963,0.29597,0.29255,0.28596,0.28254,0.27912,0.27668,0.27253
142,77,0.27009,0.26789,0.26593,0.26252,0.26032,0.25788,0.25543,0.25177,0.25153,0.25104,0.25079,0.25104,0.25104,0.25104,0.25104,0.25055,0.25006,0.24957,0.24982,0.25031,0.24982,0.24957,0.24933,0.24982,0.25031,0.25177,0.25519,0.27131,0.28474,0.30452,0.33065,0.39829,0.43639,0.47448,0.51136,0.5768,0.60415,0.62759,0.64493,0.67033,0.68156,0.69109,0.69915,0.71087,0.71477,0.71746,0.71868,0.71673,0.71306,0.70891,0.70379,0.68913,0.67937,0.66813,0.65543,0.62759,0.61319,0.59878,0.58559,0.56044,0.54799,0.53626,0.52503,0.50794,0.50012,0.4928,0.48571,0.47399,0.46935,0.46422,0.45934,0.44982,0.44493,0.4398,0.43468,0.42442,0.41954,0.4149,0.41099,0.40342,0.39927,0.39536,0.3917,0.38437,0.38022,0.37558,0.37045,0.36044,0.35629,0.35165,0.34676,0.33675,0.33211,0.32747,0.32283,0.3138,0.30891,0.30379,0.29988,0.29426,0.29109,0.28791,0.28498,0.27961,0.27692,0.27424,0.27179,0.26862,0.26813,0.2674,0.26642,0.26398,0.26276,0.26129,0.26007,0.25812,0.25763,0.25714,0.25739,0.25763,0.2569,0.25592,0.25519,0.25739,0.263,0.27326,0.28962,0.33675,0.36361,0.39707,0.43394,0.50842,0.54261,0.57363,0.60049,0.64298,0.65958,0.67326,0.68254,0.69524,0.70085,0.70525,0.70842,0.71111,0.71087,0.70965,0.7072,0.69817,0.69182,0.68425,0.67521,0.65397,0.64176,0.62882,0.61538,0.58755,0.57387,0.56068,0.54896,0.52845,0.51893,0.51038,0.50232,0.48816,0.48156,0.47546,0.4696,0.45812,0.45348,0.4486,0.44322,0.43248,0.42735,0.42198,0.41636,0.40391,0.39731,0.3917,0.38681,0.37558,0.36972,0.36361,0.35751,0.34603,0.34066,0.33553,0.33065,0.3221,0.31868,0.31477,0.31062,0.30281,0.2989,0.29548,0.29255,0.28742,0.28474,0.28303,0.28156,0.27668
142,77,0.2735,0.27033,0.2674,0.2674,0.25934,0.2569,0.25519,0.25299,0.25275,0.25201,0.25104,0.24957,0.24884,0.24811,0.24737,0.24615,0.24567,0.24591,0.2464,0.24615,0.24615,0.2464,0.24689,0.24811,0.24884,0.24908,0.24884,0.24835,0.24908,0.25031,0.25348,0.27204,0.29011,0.31477,0.3453,0.41905,0.4591,0.49353,0.52381,0.58608,0.61343,0.63736,0.65812,0.69133,0.70452,0.71575,0.72503,0.73626,0.73773,0.73895,0.73968,0.73773,0.7348,0.73065,0.72503,0.70916,0.6989,0.68791,0.67643,0.65006,0.6359,0.62173,0.60757,0.57998,0.56703,0.55482,0.54286,0.52405,0.51819,0.51062,0.50281,0.48864,0.4823,0.47668,0.47131,0.46105,0.45543,0.45031,0.44567,0.43516,0.42882,0.42222,0.41538,0.40098,0.3939,0.38706,0.38071,0.36972,0.36557,0.36068,0.3558,0.34579,0.3409,0.33626,0.33162,0.32234,0.3177,0.31429,0.3116,0.30452,0.30085,0.29744,0.29109,0.28767,0.28449,0.28132,0.27888,0.27619,0.27595,0.27521,0.27399,0.27057,0.26838,0.26593,0.26325,0.25763,0.25519,0.25397,0.25372,0.25348,0.25372,0.25421,0.2547,0.25592,0.25665,0.25714,0.25714,0.25714,0.25763,0.25739,0.2569,0.25592,0.25543,0.25519,0.25519,0.25641,0.25812,0.26129,0.26691,0.29133,0.31209,0.33846,0.37021,0.44396,0.48254,0.52015,0.55531,0.61245,0.63248,0.65226,0.67057,0.70085,0.71258,0.72283,0.73089,0.74115,0.74359,0.74335,0.74139,0.73578,0.73089,0.72454,0.71697,0.6989,0.6884,0.67692,0.65275,0.64078,0.62784,0.61465,0.60147,0.57363,0.55971,0.54579,0.53284,0.51111,0.50354,0.49792,0.49353,0.48449,0.47937,0.4735,0.46716,0.4547,0.44884,0.44322,0.43785,0.42906,0.42393,0.41856,0.41294,0.40098,0.39463,0.38852,0.38291,0.37265,0.36777,0.36361,0.35971,0.35043
142,77,0.34554,0.3409,0.33626,0.32747,0.32381,0.32015,0.31648,0.31087,0.30696,0.30281,0.2989,0.29206,0.28938,0.28669,0.28352,0.27814,0.27619,0.27521,0.27473,0.27179,0.2696,0.26691,0.26422,0.25983,0.25885,0.25836,0.25836,0.2591,0.25861,0.25714,0.25543,0.25177,0.25079,0.25055,0.25079,0.25055,0.25006,0.25006,0.25031,0.24908,0.24811,0.24713,0.24664,0.25128,0.25885,0.27204,0.29206,0.33846,0.36972,0.40513,0.44249,0.51477,0.54701,0.57631,0.60244,0.64493,0.66105,0.67228,0.6801,0.69499,0.70085,0.70574,0.70965,0.7138,0.7138,0.71233,0.7094,0.6989,0.69158,0.68254,0.67228,0.64762,0.63468,0.62198,0.60879,0.58217,0.56923,0.55751,0.54676,0.52503,0.51477,0.50549,0.49719,0.48254,0.4757,0.46935,0.46325,0.45299,0.44811,0.44371,0.43956,0.43028,0.42515,0.41978,0.41416,0.40342,0.39805,0.39365,0.3895,0.37924,0.37338,0.37338,0.36117,0.36117,0.34505,0.34042,0.33578,0.32894,0.32527,0.32161,0.31746,0.30891,0.30476,0.30085,0.29695,0.28987,0.28669,0.28474,0.28327,0.27937,0.27766,0.27595,0.27448,0.27228,0.27155,0.27082,0.27033,0.27057,0.27033,0.2696,0.26886,0.26716,0.26618,0.2652,0.26422,0.26325,0.26374,0.26496,0.26691,0.27814,0.28938,0.30549,0.32698,0.38339,0.41563,0.44811,0.47961,0.52796,0.55018,0.57094,0.5895,0.61978,0.6315,0.64103,0.64884,0.65885,0.66056,0.66056,0.66007,0.65641,0.65299,0.64884,0.64347,0.62906,0.61954,0.60904,0.5978,0.57656,0.56557,0.55433,0.5431,0.52234,0.51306,0.50476,0.49744,0.48498,0.4801,0.47546,0.47057,0.45958,0.45372,0.44811,0.44274,0.43126,0.4254,0.41978,0.41392,0.4044,0.39951,0.39463,0.38974,0.37924,0.37363,0.36801,0.36264,0.35214,0.34799,0.34457,0.34115,0.33358
142,77,0.32943,0.32527,0.31746,0.31746,0.31013,0.30672,0.30379,0.30037,0.29841,0.29646,0.29451,0.2906,0.2884,0.28596,0.28376,0.27961,0.27863,0.27814,0.27692,0.27448,0.27375,0.27302,0.27253,0.27155,0.27106,0.27082,0.27082,0.27228,0.27253,0.27228,0.27204,0.27106,0.27057,0.2696,0.26886,0.26862,0.27033,0.27399,0.28059,0.30696,0.32821,0.35482,0.38584,0.45543,0.49084,0.52527,0.55727,0.60317,0.62418,0.64371,0.66129,0.68938,0.70037,0.70965,0.71697,0.72601,0.72698,0.72625,0.72527,0.72063,0.71673,0.7116,0.7116,0.68816,0.67766,0.66593,0.64078,0.62808,0.61465,0.60098,0.5873,0.56215,0.56215,0.53919,0.52869,0.50965,0.50183,0.49548,0.49548,0.47692,0.47131,0.46569,0.45983,0.44762,0.44127,0.43468,0.42808,0.41685,0.41026,0.40342,0.39658,0.38291,0.37631,0.37021,0.36435,0.35287,0.34799,0.3431,0.33748,0.32552,0.31941,0.31355,0.30794,0.29695,0.29231,0.28816,0.28449,0.27985,0.27717,0.27448,0.27179,0.26716,0.26496,0.26276,0.26081,0.25763,0.25714,0.2569,0.25617,0.25324,0.25153,0.25031,0.24982,0.25128,0.25275,0.25397,0.25543,0.25617,0.25495,0.25348,0.25201,0.25006,0.24957,0.24933,0.24933,0.24933,0.24982,0.25079,0.25128,0.25372,0.25763,0.2652,0.27766,0.32088,0.35116,0.38608,0.4188,0.4862,0.5221,0.55653,0.58852,0.64225,0.66374,0.68156,0.69621,0.71746,0.72283,0.72576,0.72869,0.73284,0.73333,0.7326,0.7304,0.7221,0.71575,0.70842,0.70012,0.68059,0.66886,0.65568,0.64176,0.61368,0.6,0.5873,0.57534,0.55336,0.54359,0.53455,0.52527,0.50769,0.49939,0.49182,0.48449,0.47057,0.46374,0.45665,0.45031,0.43834,0.43175,0.4254,0.41905,0.40659,0.40024,0.39414,0.38779,0.37509,0.37045,0.36606,0.36093,0.35092
142,77,0.34579,0.34066,0.33065,0.32576,0.32088,0.316,0.31258,0.30647,0.30256,0.29866,0.29524,0.28913,0.2862,0.28352,0.28083,0.27521,0.27326,0.27204,0.27057,0.26642,0.26447,0.26252,0.26081,0.25763,0.25617,0.2547,0.25421,0.25372,0.25275,0.25177,0.25079,0.24957,0.24933,0.24933,0.24933,0.24933,0.24982,0.25079,0.25104,0.25031,0.24982,0.24957,0.24933,0.25201,0.25714,0.26667,0.27863,0.31673,0.3453,0.37851,0.41441,0.48791,0.52308,0.55556,0.58462,0.63272,0.64908,0.66154,0.67375,0.69402,0.70208,0.70867,0.7138,0.71966,0.72039,0.7199,0.71722,0.70794,0.70159,0.69426,0.68547,0.66398,0.65128,0.63761,0.6232,0.59389,0.58071,0.56874,0.55678,0.53382,0.52308,0.51306,0.50598,0.49451,0.48791,0.48107,0.47497,0.46422,0.45885,0.45372,0.44884,0.4381,0.43272,0.42735,0.42149,0.40904,0.40366,0.39902,0.3939,0.38364,0.37851,0.37363,0.3685,0.35726,0.35116,0.34505,0.34042,0.33236,0.32772,0.32308,0.31893,0.31111,0.30745,0.30379,0.30037,0.29524,0.29402,0.29182,0.28938,0.28327,0.28034,0.27766,0.27521,0.27155,0.27009,0.26862,0.26789,0.26789,0.26789,0.26789,0.26789,0.26716,0.26642,0.2652,0.26422,0.26422,0.2652,0.26569,0.26593,0.26618,0.26618,0.26618,0.26618,0.26667,0.26862,0.27253,0.27814,0.30037,0.31966,0.34457,0.37436,0.44249,0.47766,0.5116,0.5431,0.59414,0.61221,0.62979,0.64615,0.67228,0.68205,0.68962,0.69573,0.70305,0.70476,0.70525,0.70354,0.69621,0.69084,0.68425,0.67643,0.65641,0.64444,0.6315,0.61807,0.59243,0.58144,0.57094,0.56142,0.54481,0.53675,0.52821,0.51917,0.5011,0.4928,0.48547,0.47961,0.46886,0.46325,0.45739,0.45153,0.4398,0.43443,0.4293,0.42418,0.41465,0.41026,0.40513,0.39976,0.38901
142,77,0.38339,0.37778,0.37216,0.36044,0.35458,0.34896,0.34432,0.33602,0.33187,0.32747,0.32308,0.31526,0.31184,0.30867,0.30574,0.30061,0.29866,0.29646,0.29426,0.28962,0.28742,0.28523,0.28303,0.27888,0.27692,0.27521,0.27424,0.27277,0.27228,0.27204,0.27204,0.27155,0.27106,0.27082,0.27082,0.27131,0.27204,0.27253,0.27302,0.27302,0.27253,0.27228,0.27204,0.27204,0.27204,0.27302,0.27546,0.28816,0.30085,0.31917,0.34335,0.40708,0.44371,0.48107,0.5177,0.58071,0.60415,0.62808,0.65006,0.68718,0.70183,0.71429,0.72454,0.73944,0.74457,0.74823,0.74921,0.74628,0.74383,0.73993,0.7348,0.72063,0.71136,0.70061,0.6884,0.66178,0.64811,0.63346,0.61832,0.58926,0.57607,0.56361,0.55189,0.53065,0.52112,0.51306,0.50598,0.48718,0.47937,0.47253,0.46618,0.45397,0.44811,0.442,0.43614,0.42442,0.41905,0.41319,0.40708,0.39487,0.38901,0.38315,0.37753,0.36679,0.36093,0.35604,0.35189,0.34188,0.33626,0.33065,0.32527,0.31575,0.31087,0.30623,0.30183,0.29402,0.29133,0.28816,0.28498,0.27937,0.27668,0.27399,0.27106,0.26496,0.26203,0.26032,0.25958,0.25861,0.25885,0.25934,0.26032,0.26252,0.26325,0.26349,0.26349,0.26227,0.26178,0.26056,0.25934,0.25641,0.25495,0.25397,0.25348,0.25324,0.25397,0.25617,0.26056,0.27985,0.29719,0.32039,0.34921,0.41929,0.45714,0.49451,0.5304,0.58926,0.61026,0.6315,0.65104,0.68352,0.69573,0.70525,0.71258,0.72234,0.72527,0.72576,0.72479,0.72161,0.71819,0.71331,0.70647,0.68791,0.67668,0.66471,0.65177,0.62613,0.61465,0.6022,0.58974,0.56581,0.55458,0.54408,0.53455,0.51722,0.50989,0.50354,0.49768,0.48571,0.47961,0.47302,0.46618,0.45958,0.45348,0.44762,0.44176,0.4293,0.42344,0.41832,0.40635,0.40024
142,77,0.39414,0.38828,0.38242,0.36996,0.36361,0.35726,0.35238,0.34286,0.33748,0.33236,0.32747,0.31844,0.31404,0.30965,0.30574,0.29841,0.29573,0.29353,0.29035,0.28303,0.27961,0.27668,0.27399,0.26862,0.26618,0.26349,0.26178,0.25934,0.25788,0.25641,0.25519,0.25275,0.25177,0.25079,0.24982,0.24835,0.2486,0.24908,0.24908,0.24908,0.24908,0.24908,0.24908,0.24908,0.24908,0.24908,0.24982,0.25324,0.25665,0.26276,0.27302,0.31062,0.33871,0.37216,0.40952,0.48987,0.52479,0.55556,0.58779,0.64786,0.67375,0.6967,0.71648,0.74676,0.75824,0.76728,0.77241,0.77729,0.77924,0.78022,0.77973,0.77485,0.77021,0.76386,0.7558,0.73504,0.72332,0.71013,0.69597,0.66545,0.64982,0.63468,0.61978,0.59243,0.57998,0.5685,0.55849,0.54042,0.53187,0.52405,0.51648,0.50232,0.49206,0.47985,0.47033,0.45641,0.45104,0.44518,0.43932,0.42686,0.42051,0.41416,0.40147,0.39512,0.38852,0.38193,0.37094,0.36508,0.35873,0.35238,0.34652,0.33529,0.32991,0.32479,0.31941,0.31013,0.30696,0.3033,0.29939,0.29133,0.28694,0.28254,0.27814,0.27009,0.26642,0.263,0.26081,0.25763,0.25543,0.25348,0.25128,0.2464,0.24371,0.24127,0.23956,0.2381,0.23858,0.23883,0.23883,0.23834,0.23785,0.23712,0.23663,0.23516,0.23468,0.23492,0.23639,0.24493,0.25446,0.26911,0.28938,0.34774,0.38364,0.42173,0.46056,0.5304,0.55727,0.5851,0.61172,0.65836,0.67741,0.69402,0.70818,0.72943,0.73675,0.74237,0.74505,0.74628,0.74603,0.74481,0.74212,0.73187,0.72479,0.71624,0.70623,0.68303,0.67033,0.65665,0.64176,0.61099,0.59609,0.58169,0.56825,0.54335,0.53187,0.52112,0.51209,0.49646,0.48938,0.48278,0.47668,0.46496,0.45861,0.4525,0.4464,0.43443,0.4293,0.42344,0.41734,0.40537
142,77,0.73578,0.74505,0.75263,0.75922,0.76117,0.7619,0.76142,0.75629,0.75116,0.74457,0.73675,0.71893,0.70891,0.6989,0.68913,0.6674,0.65568,0.6442,0.63297,0.61123,0.60073,0.59048,0.58046,0.5641,0.55604,0.54799,0.54017,0.52601,0.51966,0.5138,0.50818,0.49744,0.49182,0.48718,0.48278,0.47106,0.46471,0.45836,0.45201,0.44005,0.43419,0.42808,0.42222,0.41319,0.40806,0.40293,0.3978,0.38803,0.38339,0.379,0.37436,0.36508,0.36093,0.358,0.3558,0.34969,0.34652,0.34359,0.34066,0.33553,0.33333,0.33162,0.32991,0.32845,0.32723,0.32576,0.3243,0.32112,0.31941,0.31795,0.31697,0.31624,0.31746,0.32039,0.32503,0.34286,0.35702,0.37509,0.39683,0.44884,0.47766,0.50696,0.53602,0.58266,0.60562,0.62808,0.64908,0.68523,0.69988,0.71746,0.7265,0.7409,0.74261,0.74237,0.74164,0.73651,0.73211,0.72625,0.71917,0.70134,0.69084,0.67985,0.66935,0.64811,0.63712,0.62637,0.61563,0.5956,0.58657,0.57778,0.56947,0.5536,0.54676,0.5409,0.5348,0.52308,0.51697,0.50769,0.50183,0.48694,0.48083,0.47546,0.47057,0.45958,0.44127,0.41661,0.40122,0.38193,0.37436,0.36435,0.35849,0.34701,0.34188,0.33651,0.33114,0.32088,0.316,0.31111,0.30696,0.29963,0.29744,0.29573,0.29304,0.28742,0.28449,0.28181,0.27937,0.27448,0.27228,0.27057,0.27009,0.26984,0.26935,0.26862,0.26813,0.26691,0.26667,0.26764,0.27033,0.284,0.29524,0.3116,0.33309,0.38877,0.42076,0.45421,0.48767,0.55043,0.579,0.60171,0.62076,0.65788,0.67375,0.68767,0.69963,0.71795,0.72454,0.72967,0.73284,0.73309,0.7304,0.72674,0.7221,0.70916,0.70085,0.69133,0.68107,0.65812,0.64591,0.63443,0.62344,0.60073,0.58974,0.579,0.56874,0.55018,0.54164,0.53333,0.52479,0.50965
142,77,0.50305,0.49621,0.49621,0.47497,0.46789,0.46081,0.45397,0.44054,0.4337,0.42808,0.42271,0.4105,0.40391,0.39707,0.39023,0.3768,0.37021,0.3641,0.358,0.3475,0.34383,0.33968,0.33504,0.32527,0.32063,0.316,0.31184,0.30354,0.29939,0.29646,0.29402,0.28742,0.284,0.28083,0.2779,0.27253,0.27033,0.26838,0.26667,0.2652,0.26569,0.26569,0.26545,0.26447,0.26398,0.26398,0.26398,0.26325,0.263,0.26398,0.26545,0.2696,0.27448,0.28205,0.29328,0.32747,0.35018,0.37607,0.40415,0.45861,0.48205,0.50745,0.5326,0.57949,0.60049,0.61905,0.63565,0.66276,0.67302,0.67961,0.68425,0.6928,0.69524,0.69597,0.69475,0.68645,0.67961,0.67131,0.66203,0.64151,0.63101,0.61978,0.60806,0.58437,0.57265,0.56142,0.55092,0.53138,0.5221,0.51429,0.50696,0.49182,0.48474,0.47814,0.47179,0.45958,0.45372,0.44762,0.442,0.43223,0.42808,0.42369,0.41905,0.40879,0.40317,0.39731,0.39121,0.38046,0.37582,0.37192,0.3685,0.36068,0.35653,0.35238,0.34823,0.33993,0.33578,0.33187,0.32821,0.32405,0.3221,0.3199,0.31746,0.31282,0.31062,0.30867,0.30672,0.30037,0.29475,0.29206,0.29109,0.28889,0.28791,0.28694,0.28596,0.28449,0.28376,0.28327,0.28327,0.28742,0.29158,0.29841,0.30916,0.34335,0.3663,0.39267,0.42149,0.48083,0.51013,0.53431,0.55507,0.59756,0.61636,0.63272,0.64689,0.6696,0.67814,0.68498,0.68498,0.68498,0.68498,0.69084,0.68791,0.6779,0.67057,0.66203,0.6525,0.63101,0.62002,0.60977,0.6,0.579,0.5685,0.55824,0.54823,0.52869,0.51966,0.51111,0.50281,0.48987,0.48352,0.47717,0.47057,0.46378,0.4569,0.45006,0.44347,0.43053,0.42418,0.41783,0.41245,0.40147,0.3956,0.38974,0.38388,0.37289,0.36728,0.36166,0.35653,0.34799
142,77,0.34481,0.3409,0.33236,0.32772,0.32283,0.31819,0.31355,0.30525,0.30159,0.29866,0.29719,0.29524,0.29353,0.29182,0.29011,0.28742,0.2862,0.28498,0.28352,0.28181,0.28181,0.28156,0.28107,0.28034,0.28034,0.28034,0.28059,0.28156,0.28278,0.28425,0.28645,0.29206,0.29548,0.30037,0.30769,0.33236,0.35067,0.37289,0.39829,0.45153,0.4757,0.50256,0.5304,0.58315,0.60659,0.62784,0.6464,0.67668,0.68864,0.6989,0.70525,0.71306,0.71575,0.71697,0.71673,0.71111,0.70598,0.69963,0.69182,0.67399,0.66447,0.65372,0.64249,0.61856,0.60659,0.59487,0.58364,0.5619,0.55189,0.54237,0.53407,0.51844,0.51038,0.50256,0.49475,0.4801,0.47302,0.46569,0.45861,0.44542,0.44005,0.43419,0.42833,0.41734,0.41221,0.40757,0.40269,0.3939,0.3895,0.38584,0.38242,0.37411,0.36972,0.36532,0.36117,0.35336,0.34945,0.34554,0.34188,0.33602,0.33431,0.33162,0.32845,0.32234,0.31941,0.31673,0.31453,0.31087,0.30916,0.30842,0.30818,0.30672,0.30623,0.30598,0.30574,0.30623,0.30672,0.3072,0.30745,0.30818,0.30989,0.31233,0.31673,0.33578,0.35165,0.37192,0.39609,0.45226,0.4823,0.50794,0.53114,0.57949,0.60171,0.62686,0.65275,0.68816,0.70037,0.70989,0.71722,0.72527,0.72625,0.72674,0.72625,0.72088,0.71624,0.70989,0.70232,0.68376,0.67302,0.66227,0.65201,0.63028,0.61929,0.6083,0.59731,0.57607,0.5663,0.55702,0.54847,0.5326,0.52552,0.5177,0.5094,0.49206,0.48352,0.47546,0.46764,0.45275,0.44542,0.43907,0.43321,0.41978,0.41294,0.4061,0.39951,0.38657,0.38046,0.3746,0.36874,0.35897,0.35531,0.35043,0.34481,0.33382,0.32869,0.32381,0.31917,0.31013,0.30623,0.30354,0.30134,0.29548,0.29328,0.29109,0.2884,0.28352,0.28132,0.27912,0.27717,0.27448
142,77,0.27399,0.27302,0.27204,0.27204,0.27033,0.27033,0.27033,0.27033,0.27033,0.27106,0.27326,0.28449,0.29597,0.31233,0.33407,0.39194,0.42613,0.46203,0.4989,0.56581,0.59243,0.62027,0.64737,0.69524,0.71502,0.73211,0.74701,0.77021,0.77875,0.78339,0.78559,0.78901,0.78877,0.78706,0.78364,0.77143,0.76264,0.75238,0.7409,0.71624,0.70403,0.69109,0.67766,0.65128,0.63883,0.62686,0.6149,0.59267,0.58217,0.57289,0.5641,0.54628,0.53797,0.52967,0.52137,0.50501,0.49719,0.48938,0.48181,0.46813,0.46227,0.45568,0.44835,0.43297,0.42515,0.41734,0.40952,0.39463,0.3873,0.38144,0.37631,0.36337,0.35678,0.35043,0.34432,0.33333,0.32772,0.3221,0.31673,0.30989,0.30623,0.30232,0.29817,0.28938,0.28523,0.28132,0.2779,0.27204,0.26984,0.26862,0.26838,0.26642,0.2652,0.26422,0.26325,0.26178,0.26105,0.26007,0.25885,0.2591,0.2591,0.25958,0.26154,0.27424,0.28718,0.30574,0.33016,0.39414,0.43175,0.46569,0.49744,0.56679,0.6,0.63077,0.65861,0.70647,0.72698,0.74481,0.7602,0.77802,0.78486,0.79048,0.79683,0.79707,0.79536,0.79194,0.78657,0.77118,0.76142,0.75116,0.74042,0.716,0.70305,0.69011,0.67692,0.65104,0.63834,0.62589,0.60537,0.56654,0.55433,0.54408,0.53529,0.52039,0.51306,0.50574,0.49866,0.48474,0.47766,0.47131,0.4652,0.45153,0.4442,0.43687,0.42955,0.41514,0.4083,0.40147,0.39487,0.3851,0.37973,0.37387,0.36777,0.35458,0.34823,0.34212,0.33602,0.32454,0.31917,0.31502,0.31136,0.30256,0.29792,0.29328,0.28889,0.28181,0.27863,0.27546,0.27204,0.26716,0.26422,0.26129,0.25861,0.25348,0.25128,0.24908,0.24713,0.24322,0.24225,0.24225,0.24249,0.242,0.24176,0.24151,0.24151,0.24151,0.24225,0.24444,0.24908,0.2652
142,77,0.27961,0.29939,0.32454,0.38803,0.42344,0.45934,0.49499,0.56117,0.59048,0.61343,0.63248,0.6696,0.68547,0.69939,0.71111,0.72943,0.73602,0.74115,0.74457,0.74383,0.74139,0.73797,0.73358,0.72015,0.71111,0.70085,0.68962,0.6652,0.65226,0.63712,0.62442,0.60464,0.59414,0.58388,0.57411,0.55531,0.54603,0.53675,0.52772,0.51233,0.50476,0.49695,0.48987,0.47619,0.46935,0.46227,0.45519,0.44103,0.43443,0.42833,0.421,0.40537,0.39731,0.3895,0.38193,0.36703,0.35922,0.35165,0.34432,0.33358,0.32747,0.32112,0.31404,0.29939,0.29182,0.28425,0.27692,0.263,0.25812,0.25421,0.24933,0.23907,0.23443,0.23028,0.22637,0.21929,0.21661,0.21416,0.21197,0.21148,0.21123,0.2105,0.20928,0.20659,0.20513,0.20415,0.20317,0.20171,0.20195,0.20293,0.20293,0.2022,0.20195,0.20195,0.20244,0.20708,0.21245,0.22125,0.23419,0.2674,0.2906,0.31795,0.34799,0.41148,0.44298,0.4735,0.50281,0.5558,0.57607,0.59292,0.61001,0.64127,0.65446,0.66569,0.67521,0.68889,0.69304,0.69524,0.69524,0.68913,0.68376,0.67717,0.66886,0.64908,0.63785,0.62589,0.61343,0.58803,0.57656,0.56606,0.55507,0.53236,0.52186,0.51453,0.50696,0.49206,0.48498,0.47814,0.47131,0.45934,0.45275,0.44615,0.43956,0.44615,0.4464,0.44396,0.44005,0.43077,0.42613,0.42198,0.41709,0.40684,0.40171,0.39683,0.39194,0.38169,0.3768,0.37167,0.36679,0.36093,0.35775,0.35458,0.35116,0.34359,0.33993,0.33626,0.33284,0.3265,0.32454,0.32332,0.32161,0.31795,0.31648,0.31502,0.3138,0.31136,0.31062,0.30989,0.30891,0.30916,0.30891,0.30842,0.30794,0.30769,0.30769,0.30867,0.3116,0.32698,0.33871,0.35385,0.3746,0.42857,0.45958,0.49158,0.52308,0.58095,0.60611,0.62857,0.64835,0.67424
142,77,0.63468,0.62418,0.61416,0.59585,0.58803,0.5812,0.57509,0.56557,0.56166,0.55751,0.55311,0.54408,0.53968,0.53529,0.53089,0.5221,0.51746,0.51258,0.50769,0.49841,0.49377,0.48889,0.48376,0.4735,0.46886,0.46447,0.46007,0.45104,0.44615,0.44127,0.43663,0.42759,0.42271,0.41783,0.41343,0.40708,0.40366,0.4,0.39634,0.3895,0.38584,0.38217,0.37851,0.37118,0.36825,0.3663,0.3641,0.35897,0.35604,0.35287,0.34969,0.34383,0.34139,0.33895,0.33773,0.33626,0.33455,0.3326,0.33065,0.32625,0.32405,0.3221,0.32039,0.31746,0.31722,0.31722,0.31648,0.31331,0.31111,0.30867,0.30672,0.30379,0.30427,0.30745,0.31306,0.33455,0.35238,0.37485,0.40098,0.46154,0.49328,0.52454,0.55409,0.60488,0.62295,0.63687,0.65031,0.67228,0.68034,0.68694,0.69231,0.7011,0.70452,0.70696,0.70745,0.70647,0.70525,0.70305,0.69963,0.68913,0.6823,0.67424,0.66496,0.64371,0.63272,0.62173,0.61026,0.58852,0.57851,0.56996,0.56264,0.55092,0.54628,0.54237,0.53846,0.53138,0.52796,0.52503,0.5221,0.51551,0.51184,0.50794,0.50379,0.49524,0.49133,0.48718,0.48254,0.47228,0.46642,0.46081,0.45543,0.44567,0.44127,0.43785,0.43565,0.43687,0.44176,0.45031,0.46252,0.49646,0.51648,0.53748,0.55824,0.59634,0.61026,0.621,0.63175,0.65006,0.65714,0.663,0.66764,0.67326,0.67399,0.67375,0.67179,0.6652,0.66129,0.65617,0.64957,0.63321,0.62344,0.6127,0.60122,0.57802,0.56777,0.55897,0.54994,0.53284,0.52552,0.51917,0.51355,0.50427,0.50037,0.49646,0.49255,0.48498,0.48107,0.47741,0.47375,0.46618,0.46252,0.4591,0.45568,0.44835,0.44469,0.44127,0.43761,0.43028,0.42662,0.42271,0.41856,0.38559,0.37436,0.36679,0.3619,0.35409,0.34969,0.34554,0.34139,0.33309
142,77,0.67399,0.69499,0.70598,0.71233,0.71306,0.71282,0.7116,0.70574,0.70061,0.69426,0.68596,0.66496,0.6525,0.64029,0.62857,0.60366,0.59145,0.57973,0.5685,0.54896,0.5409,0.53382,0.52747,0.51697,0.51282,0.50867,0.50476,0.49695,0.49255,0.48791,0.48303,0.47228,0.46667,0.46154,0.45665,0.44615,0.44054,0.43516,0.4293,0.41758,0.41197,0.40659,0.40147,0.39292,0.38803,0.38291,0.37802,0.36777,0.36264,0.35775,0.35336,0.34481,0.34042,0.33724,0.3348,0.32918,0.3265,0.32357,0.32039,0.3138,0.31038,0.3072,0.30403,0.30061,0.29866,0.29646,0.29402,0.28913,0.28645,0.284,0.28156,0.27766,0.27595,0.27497,0.27448,0.27228,0.27082,0.26911,0.2674,0.26398,0.26276,0.26178,0.26032,0.25885,0.2569,0.2547,0.25324,0.25763,0.26593,0.27937,0.29866,0.35263,0.38584,0.41661,0.44591,0.51062,0.54139,0.56947,0.59389,0.63248,0.64737,0.65983,0.66984,0.68132,0.68645,0.69133,0.69573,0.70403,0.7072,0.70965,0.71111,0.71038,0.70745,0.70256,0.69646,0.68059,0.67082,0.65983,0.64762,0.62051,0.60684,0.59389,0.58169,0.56239,0.55433,0.5475,0.54139,0.53065,0.52625,0.5221,0.51795,0.50965,0.50549,0.50159,0.49719,0.48742,0.48205,0.47668,0.47106,0.45934,0.45324,0.44737,0.44176,0.43248,0.42759,0.42247,0.41709,0.40659,0.40147,0.39658,0.3917,0.38242,0.37778,0.37363,0.37021,0.36239,0.35897,0.3558,0.35263,0.34554,0.34212,0.34212,0.34212,0.32991,0.32698,0.32357,0.31966,0.31184,0.30818,0.30501,0.30232,0.29866,0.29695,0.29597,0.29499,0.29109,0.28864,0.28596,0.28278,0.27741,0.2757,0.27424,0.27326,0.27253,0.27204,0.27155,0.27033,0.2674,0.26569,0.26398,0.26227,0.25885,0.25763,0.25714,0.25665,0.26129,0.26886,0.28132,0.29915,0.34994
142,77,0.38193,0.41612,0.45153,0.50916,0.53797,0.57167,0.60635,0.65568,0.6735,0.68816,0.70061,0.72039,0.72601,0.72991,0.73455,0.74335,0.74676,0.74969,0.75165,0.75116,0.74896,0.74505,0.73944,0.72381,0.71404,0.70305,0.69084,0.66422,0.65031,0.63663,0.6232,0.59853,0.58828,0.579,0.57021,0.55507,0.54896,0.54359,0.53919,0.53089,0.52674,0.52234,0.51746,0.5072,0.50183,0.49646,0.4906,0.47741,0.47106,0.46471,0.45836,0.44567,0.44005,0.43492,0.42882,0.41587,0.41001,0.4044,0.39878,0.38828,0.38291,0.37778,0.37289,0.36606,0.36288,0.35946,0.35556,0.34701,0.34261,0.33822,0.33407,0.32601,0.32332,0.32088,0.31795,0.31136,0.30794,0.30501,0.30208,0.2967,0.29377,0.29109,0.2884,0.28596,0.284,0.28156,0.27937,0.27546,0.2735,0.27155,0.26911,0.26349,0.26178,0.26032,0.25788,0.25275,0.25055,0.2486,0.24737,0.24518,0.2442,0.2442,0.24151,0.24127,0.24078,0.24029,0.23907,0.23541,0.23394,0.23272,0.23223,0.23956,0.24786,0.26007,0.27839,0.33284,0.36752,0.40513,0.44396,0.51917,0.55385,0.5851,0.61294,0.65055,0.66691,0.6823,0.69646,0.71966,0.72869,0.73602,0.74188,0.74896,0.74969,0.74896,0.74823,0.7453,0.74237,0.73822,0.73284,0.71746,0.70745,0.69597,0.68327,0.65861,0.64542,0.63199,0.61905,0.59414,0.58315,0.57289,0.56361,0.54872,0.54286,0.53748,0.53211,0.52259,0.51795,0.51331,0.50867,0.49817,0.49255,0.48645,0.48059,0.46935,0.46325,0.45714,0.45104,0.43956,0.4337,0.42759,0.42125,0.40855,0.40317,0.39829,0.39292,0.38217,0.37705,0.37241,0.36752,0.35824,0.3536,0.34896,0.3453,0.33822,0.33431,0.33065,0.32698,0.31966,0.316,0.31233,0.30891,0.30305,0.3011,0.29963,0.29768,0.29182,0.28864,0.28571,0.28303,0.27839
142,77,0.35922,0.35922,0.35067,0.34505,0.34188,0.33871,0.33529,0.32845,0.32527,0.32234,0.31917,0.31233,0.30989,0.30818,0.30598,0.30256,0.30208,0.30037,0.29841,0.29426,0.29231,0.2906,0.28889,0.28742,0.28596,0.284,0.28181,0.27668,0.27424,0.27228,0.27033,0.26716,0.26642,0.26691,0.26789,0.27692,0.28742,0.30281,0.32357,0.38095,0.41538,0.45201,0.48913,0.54847,0.57778,0.60562,0.63077,0.67009,0.68474,0.6967,0.70623,0.72088,0.72479,0.72723,0.72991,0.73382,0.7348,0.73504,0.7348,0.73211,0.72943,0.72527,0.71917,0.70281,0.69231,0.68059,0.65495,0.64176,0.62833,0.61538,0.60317,0.58169,0.57338,0.57338,0.55971,0.54872,0.54408,0.54408,0.53626,0.52869,0.52454,0.52039,0.516,0.5072,0.50208,0.49646,0.49035,0.47814,0.47179,0.46569,0.45983,0.4486,0.44371,0.43907,0.43419,0.4232,0.41783,0.4127,0.40757,0.39731,0.39194,0.39194,0.38242,0.38242,0.37363,0.3707,0.36752,0.35995,0.35604,0.35238,0.34872,0.34188,0.33919,0.337,0.33431,0.32796,0.32503,0.32186,0.31893,0.3138,0.3116,0.30916,0.30672,0.30354,0.30159,0.29963,0.29744,0.29133,0.28742,0.28303,0.27839,0.2696,0.26642,0.26422,0.26203,0.26374,0.27033,0.28205,0.29963,0.3536,0.38852,0.42735,0.46252,0.5326,0.56996,0.60586,0.63883,0.69353,0.71575,0.73529,0.75214,0.77924,0.78755,0.79316,0.79976,0.81148,0.81612,0.82027,0.82344,0.82711,0.82686,0.82564,0.82198,0.81026,0.80269,0.7939,0.78364,0.75946,0.74579,0.73138,0.71648,0.68864,0.67643,0.66545,0.65519,0.63736,0.62955,0.62198,0.6149,0.60293,0.59756,0.59194,0.58632,0.57509,0.56923,0.56288,0.55629,0.54335,0.53675,0.52943,0.52186,0.50598,0.4989,0.49231,0.48523,0.47033,0.46325,0.45617,0.44884,0.43541
142,77,0.42906,0.42906,0.41758,0.41758,0.40317,0.39805,0.39292,0.38266,0.37802,0.37363,0.36923,0.36044,0.35702,0.35409,0.35092,0.34432,0.3409,0.33748,0.33382,0.3265,0.31941,0.31038,0.30549,0.29963,0.2967,0.29377,0.29084,0.28571,0.28352,0.28107,0.27863,0.27375,0.27204,0.27131,0.27009,0.26691,0.26496,0.26325,0.26178,0.25861,0.25665,0.2547,0.25397,0.2547,0.25665,0.26154,0.27082,0.30379,0.32821,0.35702,0.38901,0.45763,0.48694,0.51282,0.53968,0.58779,0.60757,0.62418,0.63834,0.65983,0.66838,0.6757,0.68034,0.68718,0.6906,0.69353,0.69573,0.69768,0.69695,0.69499,0.69182,0.68156,0.67448,0.66642,0.65739,0.63663,0.62515,0.61319,0.60098,0.57705,0.56606,0.55556,0.54652,0.53114,0.52454,0.51868,0.51355,0.50427,0.50037,0.4967,0.4928,0.48523,0.48156,0.47814,0.47424,0.46569,0.46081,0.45543,0.44982,0.43761,0.43101,0.43101,0.43101,0.41026,0.40513,0.4,0.39487,0.38437,0.37949,0.3746,0.36972,0.36117,0.35775,0.35433,0.35018,0.34188,0.33797,0.33431,0.33089,0.32454,0.32112,0.31746,0.31477,0.3094,0.30647,0.30379,0.3011,0.29524,0.29231,0.28962,0.28694,0.28327,0.28254,0.28156,0.2801,0.27692,0.27473,0.27277,0.27057,0.26618,0.26398,0.26178,0.26032,0.25861,0.25812,0.25861,0.26105,0.27717,0.2928,0.3138,0.33919,0.39658,0.42369,0.45421,0.48523,0.54212,0.5663,0.58681,0.60391,0.63004,0.63956,0.64737,0.6525,0.65958,0.66349,0.66691,0.6696,0.67424,0.67546,0.6757,0.67473,0.66886,0.66398,0.65788,0.65055,0.63199,0.62051,0.6083,0.59585,0.57143,0.5602,0.54969,0.54042,0.52503,0.51819,0.51209,0.50672,0.49866,0.49573,0.49304,0.4906,0.48596,0.48327,0.4801,0.47668,0.46911,0.46471,0.45983,0.4547,0.44396
142,77,0.43883,0.43883,0.4293,0.42271,0.41954,0.41636,0.41343,0.40781,0.40513,0.40269,0.4,0.39365,0.39096,0.3873,0.38339,0.37509,0.3707,0.3663,0.3619,0.35385,0.35018,0.34676,0.34408,0.33895,0.33626,0.33504,0.33504,0.33162,0.32918,0.32674,0.32454,0.32137,0.32039,0.31917,0.31795,0.31575,0.31453,0.31355,0.31209,0.30794,0.30549,0.30354,0.30281,0.3072,0.31355,0.32479,0.34115,0.38974,0.42027,0.45299,0.48669,0.5475,0.57094,0.59487,0.61758,0.65568,0.67106,0.68474,0.69744,0.72039,0.73114,0.74115,0.74799,0.75531,0.75653,0.75531,0.75189,0.7431,0.74017,0.73822,0.737,0.73162,0.72576,0.71795,0.70794,0.68205,0.66618,0.64908,0.63101,0.59414,0.5768,0.56044,0.54652,0.52161,0.50916,0.49744,0.48669,0.46862,0.46203,0.4569,0.45324,0.44737,0.44469,0.44176,0.43834,0.43126,0.42784,0.42442,0.42173,0.41856,0.41709,0.41538,0.41368,0.40928,0.40635,0.40366,0.40098,0.39585,0.39341,0.39072,0.38755,0.38095,0.37778,0.37411,0.37045,0.36459,0.3619,0.35922,0.35604,0.34872,0.34481,0.34212,0.33993,0.33382,0.33065,0.32723,0.32381,0.31722,0.31453,0.31258,0.31111,0.30965,0.30965,0.30965,0.3094,0.30916,0.30867,0.30794,0.30672,0.30256,0.29963,0.29744,0.29524,0.2884,0.28498,0.28156,0.27766,0.27009,0.26789,0.26813,0.27228,0.29426,0.31013,0.33284,0.36166,0.43053,0.46716,0.5033,0.53724,0.5956,0.62002,0.6381,0.65201,0.6779,0.6884,0.69719,0.70427,0.71502,0.71893,0.7221,0.72503,0.72747,0.7265,0.72527,0.72332,0.716,0.71013,0.70256,0.69353,0.67204,0.65983,0.64737,0.63492,0.6083,0.59536,0.58315,0.57192,0.55238,0.54457,0.53724,0.53065,0.51966,0.51502,0.51013,0.50501,0.49597,0.49109,0.4862,0.48107,0.47082
138,78,0.29817,0.29451,0.29084,0.29084,0.28083,0.27717,0.27375,0.26838,0.26691,0.26496,0.263,0.2591,0.25714,0.25543,0.25372,0.25031,0.2486,0.24737,0.24664,0.24249,0.24054,0.23956,0.24054,0.25446,0.26886,0.28913,0.31551,0.37753,0.40806,0.44347,0.48059,0.55214,0.58437,0.61319,0.63858,0.67985,0.69646,0.70818,0.71697,0.73455,0.74164,0.74774,0.75311,0.76239,0.76557,0.76801,0.76948,0.76703,0.76239,0.75702,0.75043,0.73309,0.72234,0.71038,0.69744,0.67009,0.65665,0.64469,0.6337,0.61197,0.60171,0.59145,0.58217,0.56606,0.55849,0.55116,0.54457,0.53358,0.52821,0.52259,0.51697,0.50598,0.49963,0.49231,0.48449,0.46984,0.46252,0.45617,0.45055,0.43858,0.43297,0.42711,0.42125,0.40952,0.40342,0.39756,0.39145,0.3812,0.37729,0.37289,0.36825,0.35824,0.35336,0.34872,0.34383,0.33382,0.32918,0.32601,0.32405,0.31868,0.31551,0.31209,0.31209,0.30061,0.29695,0.29353,0.29011,0.28596,0.28327,0.28034,0.27717,0.27326,0.27179,0.27009,0.26789,0.26276,0.25958,0.25714,0.25543,0.25201,0.2525,0.25617,0.26398,0.29573,0.31966,0.34823,0.38046,0.43907,0.47106,0.50354,0.53504,0.59048,0.61392,0.63443,0.65201,0.67863,0.6884,0.69475,0.69915,0.70842,0.71233,0.71575,0.71844,0.72234,0.72283,0.72234,0.72063,0.71209,0.70574,0.69817,0.68913,0.66716,0.65519,0.64274,0.63028,0.60611,0.59487,0.58486,0.57607,0.55873,0.55043,0.54286,0.53602,0.52332,0.51746,0.51184,0.50647,0.49573,0.48962,0.48376,0.47814,0.46716,0.46154,0.45617,0.45055,0.43785,0.43175,0.42662,0.42173,0.41001,0.40391,0.39805,0.39194,0.37998,0.37411,0.3685,0.36313,0.35482,0.35018,0.3453,0.34042,0.32943,0.32405,0.31917,0.31477,0.30647,0.3033,0.30159,0.30012,0.29524
138,78,0.29231,0.28938,0.2862,0.28034,0.2779,0.2757,0.27375,0.27228,0.27106,0.26911,0.26691,0.26203,0.25958,0.2569,0.25397,0.25201,0.25519,0.26129,0.27106,0.30745,0.33382,0.36459,0.39805,0.46789,0.50183,0.53358,0.56215,0.60244,0.61978,0.63516,0.64884,0.66911,0.67643,0.68254,0.68767,0.69499,0.69719,0.69744,0.69646,0.69426,0.69255,0.69011,0.68083,0.67399,0.66618,0.65714,0.64713,0.62637,0.61514,0.60366,0.59219,0.57021,0.55971,0.54945,0.53968,0.52234,0.51477,0.50818,0.50256,0.49206,0.48742,0.48303,0.47839,0.46789,0.46203,0.45592,0.44957,0.43858,0.43297,0.42711,0.42125,0.40952,0.40391,0.39805,0.39194,0.37973,0.3746,0.37021,0.36654,0.35824,0.35287,0.34725,0.34139,0.33114,0.3265,0.32186,0.31746,0.31209,0.30867,0.30501,0.30134,0.29402,0.29035,0.28694,0.28303,0.27546,0.2735,0.27228,0.27009,0.26447,0.26154,0.25836,0.25519,0.24982,0.24811,0.24811,0.25128,0.26789,0.28327,0.30403,0.33016,0.39487,0.43004,0.46545,0.49939,0.56068,0.58364,0.60195,0.61954,0.64835,0.65934,0.66813,0.67521,0.68498,0.68791,0.69011,0.69158,0.69035,0.68938,0.68767,0.68498,0.67546,0.66838,0.65983,0.65006,0.62686,0.61514,0.60366,0.59145,0.56679,0.55482,0.5431,0.53211,0.51258,0.50354,0.49548,0.4884,0.47692,0.47155,0.46642,0.46154,0.45079,0.44542,0.44005,0.43419,0.42198,0.41709,0.41294,0.40806,0.39731,0.39121,0.38486,0.37851,0.36606,0.36044,0.35482,0.34921,0.3409,0.33626,0.33162,0.32698,0.31819,0.31355,0.30916,0.30452,0.29597,0.29304,0.2906,0.28718,0.27888,0.27497,0.27131,0.26789,0.26154,0.25861,0.25568,0.25226,0.2486,0.24664,0.24493,0.24396,0.24957,0.25812,0.27155,0.2906,0.3431,0.37021,0.39731,0.42808,0.4906
138,78,0.51941,0.54505,0.56703,0.59951,0.61026,0.61856,0.62491,0.63053,0.63223,0.63321,0.6337,0.63223,0.63004,0.62711,0.62344,0.61245,0.60586,0.59853,0.58999,0.56899,0.55751,0.54554,0.53358,0.51111,0.5011,0.49206,0.48352,0.47033,0.46471,0.4591,0.45372,0.44371,0.43883,0.43394,0.42882,0.41734,0.4127,0.40904,0.40488,0.3956,0.39121,0.38657,0.38217,0.37216,0.36654,0.36117,0.35556,0.34652,0.34066,0.3348,0.32918,0.31697,0.31111,0.30574,0.30085,0.29231,0.28938,0.28694,0.28352,0.2757,0.27204,0.26838,0.26496,0.25812,0.2547,0.25104,0.24835,0.24371,0.24054,0.23712,0.23394,0.22882,0.22637,0.22418,0.22222,0.21832,0.21758,0.21734,0.21587,0.21172,0.2105,0.21026,0.21221,0.25226,0.27448,0.2989,0.32332,0.38046,0.41563,0.45201,0.48864,0.558,0.58828,0.6149,0.63712,0.67155,0.6823,0.68962,0.69621,0.7072,0.71136,0.71477,0.7177,0.72137,0.72186,0.72112,0.71868,0.71013,0.70403,0.69646,0.68791,0.6674,0.65568,0.64298,0.62955,0.60317,0.5917,0.58169,0.57094,0.5514,0.54261,0.53407,0.5265,0.5138,0.50769,0.50183,0.4967,0.48791,0.48303,0.4779,0.47277,0.46227,0.4569,0.45128,0.44567,0.43516,0.43077,0.42662,0.42149,0.40977,0.40391,0.39829,0.39267,0.38169,0.37656,0.37167,0.36825,0.36068,0.35556,0.35043,0.34554,0.33651,0.33138,0.3265,0.32186,0.31429,0.31233,0.31111,0.30916,0.30354,0.30012,0.29621,0.29206,0.28425,0.28107,0.27814,0.27619,0.27375,0.27204,0.27009,0.26764,0.26178,0.25885,0.25641,0.25495,0.2591,0.26593,0.27619,0.29182,0.34017,0.37143,0.4061,0.44225,0.51282,0.5453,0.5746,0.5978,0.63419,0.65031,0.66374,0.67448,0.68987,0.69475,0.69841,0.70085,0.70232,0.70134,0.69915,0.6967,0.69011
138,78,0.68571,0.68034,0.68034,0.6569,0.64689,0.6359,0.6254,0.60269,0.59023,0.57778,0.56581,0.54359,0.53333,0.52405,0.51551,0.50085,0.49573,0.49158,0.48718,0.47863,0.47448,0.47009,0.46593,0.45641,0.45104,0.44567,0.44103,0.43272,0.42833,0.42369,0.4188,0.40879,0.40366,0.39853,0.39316,0.38242,0.37875,0.37558,0.37167,0.36288,0.35824,0.3536,0.34921,0.3409,0.33651,0.33236,0.32967,0.32454,0.32137,0.31844,0.31551,0.30989,0.3072,0.30427,0.3011,0.29646,0.29524,0.29328,0.29109,0.28791,0.2862,0.28425,0.28254,0.27839,0.27619,0.27424,0.27375,0.27766,0.28303,0.2928,0.30769,0.3536,0.38364,0.41685,0.45128,0.51502,0.54042,0.5663,0.59048,0.6293,0.64371,0.65495,0.66325,0.6735,0.67619,0.67741,0.67717,0.67985,0.68694,0.68938,0.68913,0.68327,0.67863,0.67228,0.66422,0.64518,0.63565,0.62491,0.61294,0.58877,0.57705,0.56581,0.55482,0.53602,0.52796,0.52039,0.51404,0.50403,0.49915,0.49402,0.48913,0.47912,0.47448,0.47009,0.46569,0.4569,0.45275,0.44811,0.44322,0.43321,0.42759,0.42149,0.41538,0.40195,0.39463,0.38706,0.38144,0.37118,0.36557,0.36557,0.36557,0.36557,0.33675,0.33162,0.3265,0.31966,0.31746,0.3138,0.3094,0.29988,0.29499,0.2906,0.28718,0.28205,0.27985,0.2779,0.27717,0.27595,0.27448,0.27326,0.27253,0.27204,0.27204,0.27179,0.27082,0.26886,0.26886,0.26838,0.26813,0.26813,0.26813,0.26789,0.26716,0.26642,0.26789,0.27253,0.28034,0.30989,0.33333,0.36239,0.39585,0.46911,0.50623,0.54237,0.57607,0.63004,0.64811,0.66496,0.67912,0.69988,0.70696,0.71209,0.71502,0.71722,0.71746,0.71673,0.71502,0.71013,0.7072,0.70354,0.6989,0.68645,0.67839,0.66886,0.65788,0.63394,0.62198,0.60879,0.59512,0.56777
138,78,0.55458,0.55458,0.53162,0.51355,0.50672,0.50085,0.49646,0.48987,0.4862,0.4823,0.4779,0.47009,0.46642,0.46252,0.45861,0.45006,0.44615,0.44176,0.43687,0.42637,0.42076,0.41514,0.40977,0.39976,0.39438,0.38999,0.38608,0.37656,0.37167,0.36679,0.3619,0.35214,0.34774,0.34359,0.33944,0.33284,0.33065,0.32772,0.32405,0.31746,0.31429,0.31111,0.30818,0.30208,0.29866,0.2967,0.29524,0.29035,0.28816,0.2862,0.28498,0.28278,0.28132,0.27961,0.27766,0.2757,0.27595,0.27546,0.27448,0.27277,0.27228,0.27277,0.2757,0.29426,0.31184,0.33162,0.35458,0.41832,0.45421,0.48987,0.5243,0.58535,0.6105,0.63199,0.64957,0.67253,0.67863,0.68376,0.68742,0.69109,0.69109,0.69011,0.68889,0.68474,0.68132,0.67717,0.67228,0.66056,0.65397,0.64615,0.63712,0.61538,0.60757,0.60073,0.58974,0.5663,0.55629,0.54579,0.53504,0.51453,0.50476,0.49573,0.48767,0.47473,0.4696,0.46593,0.46349,0.45861,0.45543,0.45153,0.44762,0.43956,0.43468,0.4293,0.42369,0.4127,0.4083,0.40269,0.39683,0.3851,0.37924,0.37387,0.36874,0.35922,0.35433,0.35067,0.34774,0.33968,0.3348,0.32918,0.32357,0.31404,0.30965,0.30598,0.30232,0.29695,0.29573,0.29353,0.2906,0.28352,0.27937,0.27521,0.27082,0.26203,0.25763,0.25495,0.25299,0.24762,0.24469,0.242,0.2398,0.23541,0.2337,0.23248,0.23248,0.23883,0.24689,0.25958,0.27814,0.33211,0.36581,0.40244,0.44054,0.51551,0.54994,0.57753,0.60024,0.64176,0.65861,0.67228,0.68327,0.69792,0.70232,0.70549,0.70696,0.70623,0.70476,0.70305,0.70085,0.69451,0.69011,0.68474,0.67839,0.66056,0.65006,0.6398,0.62979,0.60684,0.59512,0.58388,0.57289,0.55165,0.54139,0.53187,0.52308,0.50965,0.50256,0.49524,0.48791,0.47375
138,78,0.29133,0.28962,0.28816,0.28669,0.28718,0.28669,0.28547,0.28059,0.27717,0.27326,0.26935,0.26325,0.263,0.26593,0.27253,0.30061,0.3221,0.34823,0.37778,0.44054,0.47106,0.49963,0.52527,0.56557,0.57949,0.59243,0.60391,0.62271,0.63028,0.63687,0.64249,0.65128,0.65421,0.65543,0.65543,0.65397,0.65177,0.64835,0.64322,0.62979,0.62198,0.61392,0.60586,0.5917,0.5851,0.57875,0.57241,0.55995,0.55409,0.54823,0.54261,0.53138,0.52625,0.52161,0.51722,0.50818,0.50354,0.4989,0.49402,0.48498,0.48059,0.47619,0.47106,0.46178,0.45788,0.45275,0.44737,0.43639,0.43077,0.42515,0.41978,0.41001,0.40513,0.40147,0.39829,0.38999,0.38535,0.38071,0.37607,0.36679,0.36215,0.358,0.35409,0.34896,0.34603,0.34237,0.33871,0.33187,0.32845,0.32503,0.32161,0.31624,0.3138,0.31258,0.31209,0.3094,0.30842,0.30794,0.30867,0.31551,0.32308,0.33455,0.33455,0.38877,0.41392,0.44274,0.4735,0.53455,0.56288,0.58901,0.61221,0.65055,0.66618,0.67766,0.6862,0.70232,0.70916,0.71477,0.71917,0.7243,0.72503,0.72454,0.7199,0.71575,0.71087,0.70476,0.69768,0.69182,0.684,0.67326,0.66081,0.6337,0.61954,0.60684,0.59536,0.57167,0.56044,0.55018,0.54066,0.52405,0.51648,0.5094,0.50256,0.49158,0.4862,0.48107,0.47595,0.46667,0.46227,0.45812,0.45372,0.44567,0.44176,0.43883,0.4359,0.42833,0.42418,0.42027,0.41636,0.40977,0.40684,0.40366,0.40073,0.39756,0.39536,0.39267,0.38999,0.38388,0.38022,0.37631,0.37289,0.3663,0.36288,0.36044,0.35897,0.35433,0.35214,0.35018,0.34823,0.34457,0.34237,0.33993,0.33724,0.33455,0.33309,0.33114,0.32967,0.32747,0.32625,0.32503,0.32381,0.32234,0.32357,0.32674,0.33211,0.35287,0.36947,0.39048,0.41538,0.4735
138,78,0.50427,0.53455,0.56386,0.6083,0.62906,0.64884,0.66716,0.69817,0.71111,0.7221,0.73138,0.74457,0.74921,0.7514,0.75189,0.7514,0.74969,0.74676,0.74261,0.7304,0.72234,0.71331,0.70305,0.68205,0.67033,0.65763,0.6442,0.61783,0.60537,0.59365,0.58291,0.56386,0.55604,0.54945,0.54383,0.53309,0.52821,0.52357,0.51917,0.51062,0.50623,0.50134,0.49646,0.48889,0.484,0.47863,0.47302,0.46252,0.45714,0.45201,0.44689,0.43663,0.43126,0.42662,0.42271,0.41319,0.40855,0.40415,0.4,0.39243,0.38877,0.3851,0.38144,0.3768,0.37436,0.37167,0.36874,0.36264,0.35946,0.35629,0.35311,0.34676,0.34481,0.34335,0.34115,0.337,0.33504,0.33333,0.33138,0.32772,0.32601,0.32454,0.32332,0.32332,0.32308,0.32332,0.32454,0.33407,0.34457,0.35946,0.37924,0.43077,0.45641,0.48107,0.50867,0.56581,0.59243,0.61709,0.63956,0.67741,0.69304,0.70696,0.72747,0.73333,0.73919,0.74432,0.74847,0.7536,0.75433,0.75409,0.75238,0.74359,0.73724,0.72967,0.72039,0.69768,0.68498,0.67204,0.6591,0.63468,0.62344,0.61294,0.60293,0.58584,0.57753,0.56947,0.56215,0.54921,0.54359,0.53797,0.53211,0.50965,0.48816,0.47497,0.46471,0.44811,0.44078,0.43321,0.4254,0.40879,0.40049,0.39292,0.38584,0.37534,0.37045,0.36581,0.36142,0.35263,0.34847,0.34408,0.34017,0.33284,0.3304,0.32821,0.32527,0.31746,0.3138,0.31062,0.30769,0.30232,0.29988,0.29719,0.29402,0.29035,0.28791,0.28596,0.284,0.28059,0.27888,0.27717,0.27546,0.27155,0.27009,0.26935,0.26764,0.263,0.26081,0.25934,0.25812,0.25812,0.26056,0.26618,0.2757,0.30379,0.32601,0.35311,0.38413,0.4525,0.48767,0.52186,0.55458,0.61245,0.63394,0.65128,0.66862,0.69988,0.71306,0.72454,0.73407,0.74823
138,78,0.75287,0.7558,0.75726,0.75409,0.75092,0.75092,0.74139,0.72698,0.7177,0.70696,0.69524,0.66886,0.65592,0.64322,0.62979,0.60244,0.58999,0.57827,0.56703,0.5475,0.53846,0.52991,0.52234,0.50965,0.50305,0.49621,0.48938,0.47595,0.46984,0.46374,0.45763,0.44567,0.44005,0.43468,0.42808,0.41392,0.40708,0.40049,0.39414,0.38144,0.37534,0.36923,0.36459,0.35653,0.35189,0.34676,0.34139,0.33089,0.32625,0.32161,0.31722,0.30965,0.3072,0.30549,0.30281,0.29597,0.29182,0.28791,0.28425,0.27741,0.27399,0.27082,0.26935,0.26618,0.26447,0.26276,0.26129,0.26252,0.26716,0.27546,0.28816,0.32698,0.34969,0.37363,0.40195,0.46374,0.49499,0.52527,0.5536,0.60342,0.62466,0.64396,0.65861,0.68205,0.6928,0.70208,0.70965,0.7199,0.72308,0.72479,0.72552,0.72283,0.71893,0.71355,0.70696,0.68889,0.6779,0.66569,0.6525,0.62418,0.60928,0.59487,0.58242,0.5602,0.54969,0.53919,0.52894,0.51111,0.5033,0.49597,0.48889,0.47473,0.46886,0.46325,0.45665,0.44298,0.43614,0.4293,0.42295,0.41074,0.40464,0.39878,0.39438,0.38608,0.38022,0.37387,0.36752,0.35507,0.34847,0.34188,0.33529,0.32357,0.31966,0.31648,0.31282,0.30574,0.30012,0.29328,0.28742,0.27863,0.27497,0.27131,0.26911,0.2652,0.26227,0.2591,0.25592,0.25055,0.24786,0.24518,0.24274,0.23761,0.23663,0.23687,0.23736,0.24469,0.25372,0.26716,0.28523,0.33431,0.36361,0.39487,0.4232,0.47814,0.5072,0.53504,0.56117,0.60708,0.62662,0.64371,0.65885,0.68327,0.69109,0.69646,0.70159,0.70842,0.71013,0.71062,0.70989,0.7033,0.69719,0.68938,0.68059,0.65958,0.64737,0.63419,0.62027,0.59121,0.57729,0.5641,0.55116,0.52845,0.51941,0.5116,0.50403,0.48962,0.48254,0.4757,0.46911,0.4569
138,78,0.45079,0.44493,0.4398,0.42906,0.42271,0.41636,0.41026,0.39707,0.39048,0.38437,0.37827,0.36606,0.36117,0.35726,0.35214,0.34115,0.33553,0.33016,0.32479,0.31429,0.30916,0.30427,0.3011,0.29524,0.29158,0.28742,0.28352,0.27643,0.27277,0.26886,0.26496,0.2591,0.25763,0.25519,0.25275,0.24786,0.24591,0.24396,0.24176,0.23785,0.23565,0.2337,0.23321,0.23321,0.2337,0.23639,0.242,0.26545,0.28474,0.3094,0.33871,0.40147,0.43028,0.46252,0.49524,0.55653,0.58388,0.60879,0.63101,0.66667,0.68083,0.69304,0.70159,0.71331,0.71844,0.7221,0.72381,0.72283,0.72015,0.716,0.70989,0.69426,0.68498,0.67424,0.66227,0.63614,0.62222,0.60879,0.59609,0.57241,0.56166,0.55165,0.54335,0.52772,0.51966,0.51209,0.50476,0.49133,0.48474,0.47814,0.47155,0.46032,0.45543,0.44957,0.44322,0.42979,0.42536,0.4232,0.41661,0.40415,0.39805,0.39145,0.38486,0.37436,0.36874,0.36264,0.35653,0.34457,0.33895,0.33358,0.32821,0.31844,0.31526,0.31233,0.30842,0.30037,0.29621,0.29182,0.28718,0.27839,0.27448,0.27082,0.26716,0.26349,0.26105,0.25836,0.25568,0.25128,0.24957,0.24737,0.24493,0.24005,0.23834,0.23736,0.23663,0.23468,0.23297,0.23126,0.2293,0.22613,0.2254,0.22491,0.23101,0.2486,0.25421,0.26105,0.27082,0.30305,0.32698,0.3558,0.38828,0.46056,0.49304,0.52308,0.5558,0.62027,0.64957,0.67619,0.70012,0.73895,0.75458,0.76777,0.77924,0.79267,0.79805,0.80244,0.80537,0.8061,0.80391,0.80024,0.79438,0.77753,0.76679,0.75507,0.74212,0.7138,0.69915,0.68425,0.66984,0.64249,0.62979,0.61734,0.60537,0.58559,0.57582,0.56679,0.558,0.54164,0.53382,0.52601,0.51868,0.50452,0.49841,0.49255,0.4862,0.47179,0.46447,0.45739,0.45055,0.43761
138,78,0.43101,0.42393,0.42393,0.40635,0.40024,0.39365,0.3873,0.37485,0.36899,0.36313,0.35751,0.34603,0.34212,0.33871,0.3348,0.32625,0.32161,0.31673,0.3116,0.30183,0.29792,0.29377,0.29084,0.28645,0.28352,0.28059,0.27766,0.27253,0.26984,0.2674,0.26471,0.25983,0.25861,0.25788,0.25617,0.25153,0.24982,0.24811,0.2464,0.24347,0.24322,0.24396,0.2464,0.25665,0.26569,0.27888,0.29646,0.34457,0.37436,0.40708,0.44176,0.51233,0.54188,0.56777,0.59487,0.64518,0.66667,0.68547,0.70183,0.72821,0.73895,0.74823,0.75409,0.76142,0.76435,0.76581,0.76532,0.75873,0.75263,0.74505,0.73626,0.71429,0.70232,0.69035,0.67717,0.65079,0.63785,0.6254,0.61368,0.59292,0.58315,0.57387,0.56606,0.55263,0.54603,0.53993,0.53382,0.52039,0.5138,0.5072,0.50085,0.48889,0.48376,0.47912,0.47399,0.46325,0.45739,0.45104,0.44444,0.43175,0.42564,0.41978,0.41074,0.4061,0.40122,0.39634,0.39096,0.37973,0.37387,0.36801,0.36215,0.35238,0.34921,0.34701,0.34383,0.337,0.33358,0.3304,0.32698,0.3199,0.316,0.31184,0.30891,0.30427,0.30159,0.29939,0.29744,0.29402,0.29231,0.29035,0.28791,0.28181,0.2801,0.27912,0.2779,0.27692,0.2779,0.28474,0.29353,0.31722,0.33748,0.36288,0.38852,0.44664,0.48083,0.51551,0.54921,0.58632,0.60415,0.62247,0.64005,0.67057,0.68156,0.69011,0.69963,0.71648,0.72308,0.72869,0.73309,0.73748,0.73724,0.73529,0.73138,0.72015,0.71282,0.70427,0.69475,0.67253,0.66056,0.64811,0.63565,0.61221,0.60195,0.59243,0.58291,0.56361,0.55482,0.54652,0.53871,0.52357,0.51673,0.51038,0.50476,0.49426,0.48864,0.48278,0.47668,0.46374,0.45714,0.45055,0.44444,0.43321,0.42857,0.42344,0.41807,0.40586,0.39951,0.39341,0.3873,0.37631
138,78,0.37143,0.36679,0.36313,0.35556,0.3514,0.34701,0.34261,0.33431,0.3304,0.32674,0.32332,0.31697,0.31502,0.31209,0.30891,0.30159,0.29817,0.29499,0.29182,0.28571,0.28278,0.28059,0.27961,0.27766,0.27595,0.27399,0.27082,0.26935,0.26813,0.26691,0.26593,0.26422,0.26398,0.26276,0.26129,0.25836,0.25788,0.25788,0.25934,0.27277,0.28425,0.29475,0.30818,0.34652,0.37265,0.40147,0.43223,0.49524,0.52576,0.55458,0.58169,0.62686,0.64371,0.66081,0.67717,0.70525,0.71673,0.72674,0.73529,0.7475,0.75116,0.75311,0.75263,0.74676,0.74188,0.73553,0.72796,0.70989,0.69963,0.68889,0.67766,0.6547,0.64396,0.63248,0.62125,0.59951,0.58926,0.57973,0.57094,0.55458,0.54701,0.53944,0.53309,0.52112,0.51526,0.50965,0.50379,0.49182,0.48571,0.47985,0.47375,0.46178,0.45665,0.45079,0.44493,0.43223,0.42613,0.42002,0.41368,0.40147,0.3956,0.38974,0.38486,0.37582,0.37143,0.36654,0.36142,0.35189,0.34725,0.3431,0.33919,0.3326,0.33016,0.32723,0.32381,0.31648,0.31282,0.30916,0.30574,0.29988,0.29719,0.29451,0.2928,0.28938,0.28694,0.28474,0.28278,0.28034,0.27937,0.27863,0.27766,0.27595,0.27595,0.27521,0.27424,0.27179,0.27057,0.26935,0.26862,0.27082,0.2757,0.28376,0.29866,0.32747,0.3475,0.37216,0.4,0.46032,0.49084,0.52039,0.54847,0.59414,0.60952,0.62686,0.64396,0.67521,0.68913,0.70183,0.71331,0.7326,0.74042,0.74701,0.75116,0.75482,0.7558,0.75531,0.75311,0.7431,0.73578,0.72747,0.71819,0.69866,0.68889,0.67839,0.66764,0.64542,0.63541,0.62589,0.61661,0.6,0.59194,0.58486,0.57851,0.56606,0.5602,0.55458,0.54969,0.54115,0.53724,0.53358,0.5304,0.5243,0.52137,0.5177,0.51331,0.50183,0.49475,0.48718,0.47961,0.46276
138,78,0.45372,0.44542,0.43761,0.41807,0.40733,0.39634,0.38559,0.36386,0.35336,0.3431,0.33358,0.31697,0.31038,0.30281,0.29475,0.2779,0.27009,0.26252,0.25543,0.24249,0.23663,0.23272,0.23028,0.22442,0.22198,0.21954,0.21734,0.21221,0.20977,0.20757,0.20537,0.20317,0.20317,0.2022,0.20049,0.19414,0.18999,0.18535,0.18095,0.17314,0.16972,0.1685,0.16874,0.1707,0.17631,0.18315,0.18974,0.21465,0.23248,0.25397,0.27863,0.33162,0.35702,0.38584,0.41612,0.47766,0.50769,0.53626,0.56313,0.61148,0.63272,0.64908,0.66203,0.68791,0.69915,0.70842,0.71624,0.72625,0.72845,0.72869,0.72674,0.71819,0.71184,0.70427,0.69573,0.67619,0.66569,0.6547,0.64347,0.61929,0.60757,0.6,0.59267,0.57729,0.56972,0.56239,0.55531,0.54164,0.5348,0.52796,0.52063,0.50745,0.49988,0.4928,0.48767,0.47643,0.46984,0.463,0.45568,0.43956,0.43053,0.42247,0.4149,0.4149,0.38437,0.37314,0.36239,0.34261,0.33333,0.32479,0.31722,0.30672,0.30427,0.30183,0.29988,0.29915,0.30012,0.30208,0.30501,0.31282,0.31697,0.32063,0.3243,0.3304,0.33284,0.3348,0.33651,0.33968,0.34115,0.34212,0.3431,0.34408,0.34432,0.34408,0.34359,0.34212,0.34139,0.34066,0.33944,0.33675,0.33553,0.33529,0.33553,0.337,0.33919,0.34212,0.34823,0.37827,0.39194,0.41099,0.4337,0.48278,0.50501,0.52991,0.5619,0.6105,0.63272,0.65446,0.67253,0.70769,0.7177,0.72527,0.73504,0.74823,0.75189,0.75507,0.75726,0.75775,0.75507,0.75189,0.74847,0.73724,0.7304,0.72283,0.71477,0.69573,0.68571,0.67668,0.66813,0.65543,0.64737,0.63883,0.63297,0.62222,0.61636,0.61245,0.60708,0.59634,0.59292,0.58999,0.58535,0.57656,0.5707,0.56508,0.56093,0.54969,0.54359,0.53773,0.53187,0.52088
138,78,0.51624,0.51624,0.50549,0.49499,0.48938,0.484,0.47863,0.46838,0.46349,0.45934,0.45568,0.4464,0.44176,0.43736,0.43321,0.42466,0.42076,0.41661,0.4127,0.4061,0.40366,0.40049,0.39731,0.39096,0.38779,0.3851,0.38266,0.37875,0.37729,0.3768,0.3768,0.37534,0.3746,0.37387,0.37314,0.37167,0.37118,0.37045,0.36996,0.37021,0.37143,0.37314,0.37558,0.38706,0.39731,0.41074,0.42759,0.4696,0.49328,0.51502,0.53529,0.58095,0.60366,0.6254,0.64591,0.68303,0.69939,0.71404,0.7431,0.75067,0.76093,0.76777,0.77387,0.78364,0.78657,0.78852,0.78852,0.78706,0.78706,0.77802,0.77216,0.75751,0.74896,0.73968,0.72967,0.7094,0.69963,0.69011,0.69011,0.66471,0.65714,0.64933,0.64176,0.62808,0.62173,0.61563,0.60977,0.59853,0.59341,0.58803,0.58242,0.57094,0.56532,0.55971,0.55433,0.54335,0.53797,0.5326,0.52698,0.51795,0.51331,0.50842,0.50403,0.49597,0.49206,0.48791,0.48376,0.47595,0.47277,0.46984,0.46667,0.46032,0.45714,0.45397,0.45079,0.44444,0.44151,0.43883,0.43883,0.43883,0.43053,0.42833,0.42589,0.421,0.4188,0.41685,0.4149,0.41099,0.40952,0.4083,0.40659,0.40195,0.39976,0.39756,0.39585,0.39219,0.39048,0.38852,0.38706,0.38462,0.38315,0.38193,0.38095,0.379,0.37802,0.37705,0.37631,0.37509,0.37558,0.37705,0.37949,0.38999,0.39976,0.41294,0.42955,0.47155,0.49597,0.52161,0.54432,0.54188,0.55409,0.57387,0.59658,0.64176,0.66252,0.68132,0.6989,0.72943,0.73968,0.7475,0.75604,0.77216,0.77851,0.78339,0.78657,0.78828,0.78632,0.78266,0.77705,0.76288,0.75482,0.74603,0.73675,0.71648,0.70623,0.69597,0.68596,0.66691,0.65836,0.65055,0.64298,0.62882,0.62198,0.61538,0.60904,0.59609,0.5895,0.58291,0.57631,0.56386
138,78,0.70818,0.71111,0.71111,0.71624,0.71624,0.71526,0.71306,0.70549,0.70061,0.69499,0.68913,0.67521,0.66838,0.66154,0.65519,0.64274,0.63687,0.63101,0.6254,0.61514,0.61099,0.60781,0.60611,0.60391,0.60269,0.60098,0.59878,0.59341,0.59023,0.58706,0.58413,0.579,0.5768,0.5746,0.57216,0.56728,0.56508,0.56288,0.56044,0.55482,0.55116,0.54676,0.54139,0.52772,0.51966,0.51111,0.50354,0.48718,0.47814,0.46886,0.45934,0.44103,0.43248,0.42466,0.41807,0.40928,0.40806,0.40855,0.41172,0.42857,0.44225,0.45934,0.47888,0.5221,0.54505,0.5685,0.58901,0.6293,0.65201,0.67497,0.69695,0.73455,0.74921,0.76068,0.76874,0.77485,0.77314,0.76972,0.76435,0.74896,0.74017,0.73089,0.72186,0.70379,0.69426,0.68498,0.6757,0.65543,0.64518,0.63541,0.62613,0.60855,0.60049,0.59341,0.5873,0.57778,0.57436,0.57143,0.56899,0.56459,0.56215,0.55971,0.55702,0.55043,0.54628,0.54212,0.53797,0.52747,0.52186,0.51624,0.51038,0.4989,0.49328,0.48816,0.48327,0.47521,0.47228,0.46935,0.46642,0.46105,0.4591,0.45714,0.45519,0.45055,0.44811,0.4464,0.44493,0.44249,0.442,0.442,0.44249,0.44274,0.44249,0.442,0.44127,0.44054,0.44029,0.4398,0.43932,0.43785,0.43736,0.43712,0.43712,0.4381,0.44054,0.44396,0.44908,0.46716,0.47961,0.49451,0.51136,0.54921,0.56899,0.58852,0.60733,0.64005,0.65226,0.6652,0.67814,0.70085,0.71062,0.71941,0.72723,0.74042,0.74554,0.74847,0.74994,0.75214,0.75189,0.75092,0.74872,0.72943,0.70623,0.68987,0.67668,0.65348,0.64274,0.63199,0.621,0.59927,0.58926,0.57949,0.57021,0.55263,0.54457,0.53748,0.53016,0.51648,0.5094,0.50232,0.49524,0.48205,0.4757,0.46935,0.46349,0.4525,0.44689,0.44029,0.43272,0.41685
138,78,0.40928,0.40244,0.38999,0.38388,0.37778,0.37241,0.36752,0.35604,0.35043,0.34481,0.33944,0.32845,0.32308,0.31844,0.31429,0.30672,0.30354,0.29963,0.29573,0.2884,0.28474,0.28107,0.27741,0.27009,0.26667,0.26447,0.26276,0.25812,0.25568,0.25324,0.25104,0.24762,0.24591,0.24396,0.24176,0.23736,0.23639,0.23492,0.23346,0.23346,0.23614,0.24151,0.25055,0.28034,0.30159,0.32283,0.34457,0.39902,0.42857,0.45812,0.48694,0.54017,0.56459,0.5873,0.6083,0.64249,0.6547,0.66789,0.68083,0.70379,0.71282,0.72015,0.72576,0.7326,0.73358,0.73236,0.72943,0.72112,0.71502,0.7072,0.69768,0.67497,0.66252,0.64908,0.63516,0.60977,0.5978,0.58608,0.57509,0.55458,0.54505,0.53602,0.52723,0.51038,0.50208,0.49451,0.48742,0.47253,0.46545,0.45836,0.45128,0.43761,0.43101,0.42442,0.41783,0.4061,0.39951,0.39267,0.38584,0.37265,0.36606,0.35922,0.35238,0.33993,0.33382,0.32845,0.32405,0.31502,0.31013,0.30476,0.29988,0.29084,0.2862,0.28132,0.27619,0.26838,0.26447,0.26032,0.25641,0.24933,0.24567,0.24249,0.23956,0.23443,0.23199,0.23028,0.22857,0.22271,0.21929,0.21587,0.21245,0.2083,0.20733,0.20781,0.2105,0.22222,0.23272,0.24689,0.26471,0.31087,0.33797,0.36654,0.3956,0.45299,0.48034,0.50305,0.52283,0.56459,0.58462,0.60342,0.62125,0.65104,0.66325,0.67399,0.68303,0.69206,0.69548,0.69792,0.6989,0.69573,0.69158,0.68571,0.67814,0.6591,0.64786,0.63639,0.62466,0.59829,0.58486,0.57118,0.55775,0.53284,0.52186,0.5116,0.50232,0.48669,0.4862,0.48962,0.48816,0.47985,0.47375,0.46764,0.46154,0.44933,0.44347,0.43858,0.43419,0.42418,0.41832,0.41197,0.40513,0.39121,0.3851,0.379,0.37314,0.36435,0.35995,0.35556,0.35116,0.34115
138,78,0.33553,0.33016,0.32503,0.31453,0.30965,0.30623,0.30354,0.29792,0.29499,0.29182,0.2884,0.28083,0.27766,0.27448,0.27155,0.26789,0.26545,0.26252,0.25934,0.25275,0.24982,0.24737,0.24518,0.24249,0.24225,0.24396,0.24762,0.26203,0.27399,0.28987,0.3094,0.35775,0.38559,0.41416,0.44274,0.4884,0.51087,0.53309,0.55433,0.59145,0.60733,0.62173,0.63419,0.65372,0.65983,0.66374,0.66764,0.67424,0.67595,0.67619,0.67497,0.66789,0.66178,0.65421,0.64542,0.62589,0.61465,0.60269,0.59023,0.5663,0.55507,0.54432,0.53358,0.5138,0.50549,0.49841,0.49158,0.47912,0.47302,0.46716,0.45519,0.44933,0.44347,0.43785,0.43199,0.42173,0.41661,0.41148,0.40635,0.39487,0.38926,0.38388,0.37827,0.36606,0.36093,0.35653,0.3514,0.34164,0.337,0.33561,0.33236,0.3221,0.31697,0.31184,0.3072,0.30012,0.29768,0.29426,0.2906,0.28303,0.27961,0.27668,0.27375,0.26716,0.26374,0.26154,0.26007,0.25568,0.25324,0.25104,0.24908,0.2442,0.24176,0.23932,0.23736,0.23419,0.23419,0.23394,0.23419,0.24103,0.24957,0.26203,0.27839,0.3221,0.34823,0.37265,0.39658,0.45055,0.47717,0.50208,0.52454,0.56313,0.57973,0.59463,0.6083,0.63053,0.6381,0.64615,0.65324,0.663,0.66569,0.66691,0.66691,0.663,0.65885,0.65324,0.64615,0.62833,0.61734,0.60537,0.59267,0.56703,0.55531,0.54432,0.53358,0.51429,0.50598,0.49719,0.48864,0.47179,0.46447,0.45763,0.45128,0.4398,0.43443,0.42979,0.4254,0.41612,0.41148,0.40635,0.40073,0.38926,0.38364,0.37753,0.37118,0.35995,0.35556,0.35092,0.34579,0.33602,0.33162,0.32723,0.32991,0.33602,0.33407,0.33211,0.33016,0.32381,0.32039,0.31697,0.31331,0.30549,0.30208,0.29866,0.29524,0.29035,0.28938,0.28791,0.2862,0.28254
138,78,0.28059,0.27863,0.27473,0.27228,0.26984,0.26862,0.26764,0.26496,0.26398,0.263,0.26227,0.26398,0.26813,0.2757,0.28669,0.31868,0.33748,0.36117,0.38803,0.44518,0.4735,0.50085,0.52674,0.57338,0.59414,0.6105,0.62369,0.65055,0.66252,0.6735,0.68254,0.69524,0.69915,0.70159,0.70281,0.70037,0.69792,0.69451,0.68987,0.67595,0.66691,0.6569,0.64591,0.62149,0.60806,0.59585,0.58413,0.55897,0.54701,0.53529,0.52479,0.50574,0.49695,0.48864,0.48132,0.46984,0.46398,0.45788,0.45177,0.43883,0.43199,0.42564,0.41954,0.40733,0.40098,0.3956,0.39072,0.37851,0.37192,0.36557,0.35946,0.34774,0.34164,0.33504,0.32845,0.31868,0.31306,0.30745,0.30256,0.29353,0.28913,0.28498,0.28059,0.28059,0.2674,0.26422,0.26178,0.25495,0.25079,0.24664,0.24322,0.23663,0.23346,0.23053,0.22759,0.22515,0.22344,0.22173,0.21978,0.21538,0.21245,0.20952,0.20659,0.20098,0.19805,0.19658,0.19585,0.19267,0.19048,0.18803,0.18584,0.18193,0.18046,0.17949,0.17875,0.18071,0.18193,0.18413,0.18852,0.20708,0.22222,0.24103,0.26349,0.31746,0.34701,0.37363,0.39829,0.45055,0.47497,0.49768,0.51819,0.55409,0.56972,0.58339,0.59536,0.61148,0.6188,0.62564,0.6315,0.63883,0.64054,0.64078,0.63907,0.63175,0.62589,0.61929,0.61197,0.59389,0.58315,0.57192,0.55995,0.5348,0.52283,0.51111,0.50037,0.48425,0.47668,0.46935,0.46252,0.45104,0.44591,0.44103,0.43565,0.42442,0.41929,0.4149,0.41074,0.40024,0.39487,0.38974,0.38486,0.37509,0.37021,0.36508,0.35971,0.3514,0.34652,0.3409,0.33529,0.32503,0.32015,0.31526,0.31038,0.30159,0.29744,0.29475,0.2928,0.32845,0.33748,0.34017,0.33993,0.33626,0.33407,0.33162,0.32918,0.32674,0.32503,0.32308,0.32088,0.31673
138,78,0.31429,0.31429,0.30989,0.30598,0.30403,0.3033,0.3033,0.30208,0.30208,0.30379,0.30769,0.32357,0.33602,0.35165,0.37045,0.40855,0.43077,0.45446,0.47814,0.52308,0.54383,0.56264,0.57973,0.6083,0.61856,0.62662,0.63541,0.65104,0.65763,0.66349,0.66813,0.6735,0.67424,0.6735,0.67155,0.66447,0.65958,0.65372,0.64664,0.62955,0.61978,0.60928,0.59853,0.57631,0.56654,0.55775,0.54872,0.53236,0.52479,0.51746,0.51087,0.49768,0.49133,0.48547,0.48083,0.47424,0.47106,0.46764,0.46349,0.45421,0.44957,0.44518,0.44029,0.43053,0.42711,0.42442,0.42125,0.41343,0.40904,0.4044,0.39951,0.39072,0.38681,0.38339,0.37973,0.37485,0.37167,0.36825,0.36459,0.35751,0.35433,0.35092,0.34774,0.34237,0.34115,0.34066,0.33944,0.33602,0.33358,0.33089,0.32821,0.32283,0.32015,0.31746,0.31502,0.31331,0.31258,0.31233,0.31282,0.31795,0.3243,0.33382,0.34603,0.37851,0.39634,0.41465,0.43565,0.4801,0.50208,0.52308,0.54261,0.57582,0.58999,0.60244,0.61343,0.62735,0.63346,0.63858,0.64298,0.65006,0.65226,0.65372,0.65397,0.65128,0.64835,0.64444,0.63907,0.62491,0.61636,0.60659,0.59634,0.57509,0.56459,0.55385,0.54383,0.52796,0.52063,0.51355,0.50745,0.49719,0.49328,0.48938,0.48571,0.47985,0.47717,0.47473,0.47155,0.46471,0.46105,0.45739,0.45397,0.4464,0.442,0.43761,0.43321,0.42662,0.4232,0.42002,0.41734,0.41416,0.4149,0.41807,0.42369,0.44298,0.45446,0.46642,0.48059,0.51184,0.52674,0.5409,0.55433,0.57607,0.58462,0.59145,0.59731,0.60415,0.60659,0.6083,0.60904,0.60684,0.60391,0.60024,0.59585,0.58486,0.57851,0.57192,0.56435,0.54652,0.53724,0.52796,0.51868,0.50452,0.50037,0.49426,0.48913,0.48059,0.47595,0.47106,0.46618,0.45739
138,78,0.5812,0.60317,0.60317,0.65543,0.66178,0.66813,0.6735,0.68156,0.68352,0.68425,0.68352,0.67717,0.67179,0.66593,0.6591,0.64176,0.63175,0.62149,0.61099,0.59023,0.58022,0.57021,0.56044,0.54335,0.53626,0.52845,0.52063,0.50574,0.49915,0.49353,0.4884,0.47863,0.47375,0.4696,0.46569,0.4569,0.45226,0.44762,0.44298,0.43346,0.42808,0.42198,0.41612,0.40708,0.4044,0.40098,0.39731,0.38901,0.38413,0.37875,0.37387,0.36532,0.36068,0.35726,0.35458,0.34774,0.34408,0.34042,0.33651,0.32967,0.32698,0.3243,0.32161,0.31697,0.316,0.31429,0.31209,0.30794,0.30549,0.30305,0.30061,0.2967,0.29597,0.29621,0.2967,0.29573,0.29548,0.29548,0.29573,0.30012,0.30623,0.316,0.32967,0.36459,0.38388,0.40733,0.4337,0.48938,0.51648,0.54261,0.56728,0.61245,0.63223,0.64762,0.65983,0.68278,0.69255,0.70061,0.70745,0.71795,0.7221,0.72527,0.72747,0.72723,0.72479,0.72186,0.71746,0.70379,0.69499,0.68498,0.67399,0.65079,0.63932,0.62906,0.61954,0.59927,0.5895,0.57998,0.57118,0.55629,0.54969,0.54359,0.537,0.52405,0.51917,0.51429,0.5094,0.49988,0.49499,0.48962,0.48376,0.47204,0.46618,0.46105,0.45641,0.44567,0.44029,0.43468,0.4293,0.41783,0.41221,0.40659,0.40147,0.39414,0.38999,0.38584,0.38169,0.37387,0.37045,0.36728,0.36435,0.35726,0.3536,0.35116,0.34872,0.34115,0.337,0.33309,0.32943,0.32405,0.32234,0.32063,0.31868,0.31722,0.31575,0.31404,0.31233,0.30867,0.30647,0.30403,0.3011,0.29646,0.29524,0.29524,0.29548,0.29451,0.29402,0.29353,0.29328,0.29573,0.29963,0.30623,0.31648,0.3431,0.36264,0.38608,0.41197,0.46813,0.49744,0.52601,0.55311,0.60293,0.62515,0.64274,0.65763,0.68791,0.70159,0.7138,0.7243,0.74017
138,78,0.74579,0.75043,0.75433,0.75604,0.75556,0.75458,0.74969,0.73236,0.72332,0.71306,0.70183,0.67766,0.66471,0.65275,0.64127,0.61709,0.60537,0.59365,0.58266,0.56459,0.55629,0.54847,0.54066,0.52772,0.52039,0.51233,0.50403,0.4906,0.48498,0.47888,0.47253,0.45885,0.45226,0.44689,0.442,0.43004,0.42393,0.41783,0.41172,0.39878,0.39194,0.38535,0.37924,0.36972,0.36435,0.35849,0.35311,0.34261,0.33797,0.33382,0.32991,0.32186,0.31746,0.31453,0.31209,0.30598,0.30256,0.29915,0.29597,0.29035,0.28718,0.28352,0.2801,0.27766,0.27619,0.27448,0.27277,0.26935,0.26691,0.26447,0.26129,0.25446,0.25153,0.25031,0.25031,0.25006,0.24957,0.24908,0.2486,0.24664,0.24542,0.24444,0.2442,0.24884,0.25324,0.26056,0.27179,0.30769,0.33187,0.35946,0.3895,0.45299,0.48474,0.5116,0.53602,0.58877,0.61343,0.63614,0.65665,0.69206,0.7072,0.72039,0.73211,0.74603,0.75214,0.75775,0.76166,0.76532,0.76557,0.76435,0.76142,0.7514,0.74335,0.73407,0.72405,0.70037,0.68718,0.6735,0.66007,0.63394,0.62125,0.60928,0.59756,0.57778,0.56947,0.56142,0.5536,0.53773,0.52991,0.52283,0.516,0.50305,0.49719,0.49133,0.48498,0.47131,0.46374,0.45665,0.45006,0.43614,0.42906,0.42222,0.41587,0.40708,0.4022,0.39658,0.39023,0.3768,0.37118,0.36581,0.36068,0.35067,0.34701,0.34359,0.33895,0.32894,0.32381,0.31868,0.31429,0.30549,0.30134,0.29768,0.29451,0.29231,0.29084,0.28889,0.28694,0.28278,0.28059,0.27839,0.27595,0.27033,0.26813,0.26642,0.26374,0.25714,0.25495,0.25348,0.25226,0.25153,0.25128,0.25153,0.25226,0.25617,0.25885,0.26398,0.27253,0.30232,0.32405,0.34921,0.37705,0.43883,0.46667,0.49182,0.51868,0.57216,0.59658,0.61929,0.6398,0.67595
138,78,0.52552,0.5199,0.50891,0.50379,0.4989,0.49451,0.49011,0.48107,0.47643,0.47204,0.46789,0.46129,0.45788,0.45446,0.45079,0.44274,0.43858,0.43468,0.43053,0.421,0.41685,0.41294,0.40879,0.40073,0.39707,0.39316,0.38901,0.38071,0.37705,0.37314,0.36947,0.36361,0.36044,0.358,0.35507,0.34969,0.34725,0.34505,0.34286,0.33895,0.32967,0.31648,0.30769,0.29597,0.29231,0.28938,0.28718,0.28327,0.28181,0.28059,0.27961,0.27985,0.27888,0.27741,0.2757,0.27155,0.2696,0.26862,0.2696,0.27961,0.2884,0.29963,0.31526,0.358,0.38437,0.41294,0.44298,0.50232,0.52943,0.55433,0.5768,0.60904,0.62369,0.63736,0.64957,0.67033,0.67863,0.68547,0.69133,0.69963,0.70085,0.70061,0.69988,0.69573,0.69182,0.68669,0.68034,0.66471,0.65568,0.64542,0.63468,0.61514,0.60488,0.59487,0.5851,0.56654,0.55751,0.54872,0.54066,0.52747,0.52186,0.51673,0.51184,0.5033,0.49939,0.49499,0.49035,0.48059,0.47619,0.47204,0.46764,0.46007,0.45568,0.45055,0.44542,0.43565,0.43077,0.42564,0.42027,0.41074,0.40659,0.40317,0.39878,0.38828,0.38315,0.37851,0.3746,0.36728,0.3641,0.36093,0.35775,0.35287,0.34994,0.34701,0.3431,0.33626,0.33333,0.3304,0.32747,0.32332,0.32234,0.32161,0.32039,0.31697,0.31526,0.31331,0.31184,0.3094,0.30769,0.30574,0.3033,0.30012,0.29792,0.29597,0.29451,0.29524,0.29866,0.30574,0.31697,0.35189,0.37192,0.39267,0.41832,0.47717,0.50745,0.53724,0.56532,0.6149,0.63565,0.65446,0.67106,0.6928,0.70256,0.7116,0.71966,0.73333,0.73871,0.74286,0.74554,0.7475,0.74579,0.74261,0.73919,0.72821,0.72112,0.71306,0.70403,0.68352,0.67179,0.65983,0.64884,0.62662,0.61538,0.6044,0.59414,0.5746,0.56581,0.55751,0.54945,0.53504
138,78,0.61929,0.60684,0.59414,0.57167,0.56166,0.55214,0.5431,0.52821,0.52161,0.51526,0.50965,0.4989,0.49377,0.48816,0.4823,0.47009,0.46398,0.45788,0.45177,0.44054,0.4359,0.43126,0.42613,0.4149,0.40879,0.40269,0.39658,0.38462,0.37851,0.37265,0.36801,0.35897,0.35336,0.34823,0.34335,0.33455,0.3304,0.32625,0.32234,0.31526,0.31282,0.30891,0.30549,0.30037,0.29744,0.29451,0.29158,0.28547,0.28254,0.27985,0.27839,0.27668,0.27546,0.27375,0.27228,0.2696,0.26789,0.26618,0.26422,0.26154,0.26129,0.26129,0.26667,0.27399,0.28547,0.30159,0.32234,0.37509,0.40562,0.43712,0.46447,0.51453,0.54017,0.56459,0.5873,0.6254,0.64103,0.65421,0.66496,0.6801,0.68425,0.68889,0.6928,0.69841,0.69963,0.69939,0.69792,0.69035,0.68376,0.67595,0.6674,0.64811,0.63736,0.62589,0.61416,0.59096,0.57998,0.56972,0.55995,0.54237,0.53431,0.52601,0.51795,0.50256,0.49573,0.48987,0.48449,0.47448,0.4696,0.46471,0.46056,0.45348,0.44957,0.44957,0.44127,0.43101,0.42613,0.42125,0.41636,0.40708,0.40317,0.39878,0.3939,0.38413,0.37875,0.37338,0.36825,0.35849,0.35409,0.34969,0.34628,0.33919,0.33504,0.33089,0.32674,0.31893,0.31502,0.3116,0.30891,0.30501,0.30305,0.30085,0.2989,0.29475,0.2928,0.29158,0.29035,0.2884,0.28742,0.28718,0.28718,0.28596,0.28523,0.28425,0.28327,0.28254,0.28376,0.28718,0.29377,0.31722,0.33309,0.35458,0.38046,0.44078,0.47253,0.50427,0.53504,0.58974,0.61245,0.6293,0.64274,0.66886,0.68059,0.69109,0.70085,0.71722,0.7243,0.73016,0.7348,0.73871,0.73675,0.73382,0.72943,0.71624,0.70745,0.69744,0.6862,0.65983,0.64591,0.63297,0.62027,0.59267,0.579,0.56532,0.55189,0.52625,0.51477,0.50403,0.49402,0.47814
138,78,0.38926,0.38632,0.38046,0.37778,0.37534,0.37289,0.3707,0.36679,0.36532,0.36361,0.36142,0.35726,0.35531,0.3536,0.35214,0.34921,0.34774,0.34652,0.34554,0.34383,0.34261,0.34139,0.34042,0.33871,0.33748,0.33626,0.3348,0.3326,0.3326,0.33284,0.33382,0.34115,0.34896,0.36044,0.37582,0.41636,0.44005,0.46447,0.48571,0.52527,0.5453,0.56386,0.58022,0.60659,0.61661,0.62466,0.63101,0.63907,0.64078,0.64147,0.64274,0.64615,0.64713,0.64737,0.64664,0.64298,0.63956,0.63516,0.62979,0.61734,0.61001,0.60171,0.59292,0.57436,0.56215,0.5475,0.53455,0.51282,0.50379,0.49597,0.48913,0.47668,0.47082,0.4652,0.46032,0.45104,0.4464,0.44176,0.43663,0.42686,0.42173,0.41612,0.41074,0.40147,0.39683,0.39219,0.3873,0.37729,0.37289,0.3685,0.36337,0.35238,0.34725,0.34261,0.33797,0.32918,0.32454,0.32039,0.31746,0.31306,0.31062,0.30794,0.30574,0.30159,0.29963,0.29768,0.29524,0.28938,0.28742,0.28596,0.28449,0.28205,0.28059,0.27863,0.27643,0.27155,0.26911,0.26642,0.26447,0.26056,0.25861,0.2569,0.25568,0.25372,0.2525,0.25128,0.24957,0.2464,0.24591,0.2464,0.24737,0.25641,0.26642,0.28132,0.30085,0.35214,0.38217,0.41343,0.44005,0.49011,0.51526,0.53871,0.55971,0.59341,0.60659,0.61783,0.62711,0.64078,0.6442,0.64615,0.6486,0.65324,0.65495,0.65543,0.6547,0.64933,0.64469,0.63932,0.63297,0.61636,0.60635,0.5956,0.58437,0.5602,0.54774,0.53553,0.5243,0.50305,0.49402,0.4862,0.47839,0.46496,0.45958,0.45446,0.44982,0.44127,0.43687,0.43272,0.42906,0.421,0.41587,0.41074,0.40562,0.39609,0.3917,0.38706,0.38242,0.37314,0.36874,0.36484,0.36068,0.35287,0.35018,0.34921,0.35116,0.36508,0.37802,0.39438,0.41026,0.44689
138,78,0.22613,0.22491,0.22271,0.22149,0.22027,0.21905,0.21807,0.21587,0.21538,0.21368,0.21148,0.20733,0.20586,0.20488,0.20488,0.21294,0.22271,0.23736,0.25421,0.30085,0.33162,0.36508,0.4,0.46764,0.49817,0.52576,0.54994,0.58535,0.59683,0.60781,0.61709,0.63101,0.6359,0.63932,0.64176,0.64371,0.64322,0.642,0.63907,0.62955,0.62369,0.61685,0.60855,0.58803,0.57631,0.56361,0.55043,0.52454,0.51331,0.50134,0.48913,0.46764,0.45788,0.4486,0.44029,0.42637,0.42027,0.4149,0.41074,0.40391,0.4,0.39585,0.39145,0.38217,0.37778,0.37338,0.36874,0.35946,0.35531,0.35018,0.34481,0.3348,0.33065,0.3265,0.33626,0.35897,0.35995,0.35922,0.35775,0.35287,0.34969,0.34628,0.34286,0.33578,0.3326,0.32943,0.3265,0.32332,0.32283,0.32234,0.3221,0.3199,0.31819,0.31624,0.31404,0.30867,0.30623,0.30476,0.30379,0.30183,0.30085,0.29988,0.29915,0.29695,0.29524,0.29353,0.29231,0.29084,0.29084,0.29035,0.28987,0.29084,0.29377,0.29963,0.3094,0.34261,0.36606,0.3895,0.41343,0.47131,0.50159,0.53089,0.55775,0.6022,0.62002,0.63492,0.64713,0.663,0.66716,0.67179,0.67595,0.68156,0.684,0.68571,0.6862,0.68327,0.67985,0.67521,0.6696,0.65543,0.64689,0.63736,0.62735,0.60537,0.59438,0.58315,0.57118,0.55018,0.54115,0.53187,0.52283,0.50598,0.4989,0.49255,0.48669,0.47692,0.47253,0.46838,0.46447,0.45641,0.45226,0.44835,0.44493,0.43736,0.43346,0.42906,0.42442,0.41538,0.41123,0.4061,0.40073,0.39072,0.38632,0.38193,0.37802,0.37118,0.36825,0.36606,0.36361,0.35824,0.35531,0.35214,0.34945,0.34432,0.34164,0.33871,0.33553,0.3304,0.32894,0.32723,0.32576,0.32234,0.32039,0.31844,0.31648,0.31233,0.31013,0.30891,0.30794,0.30501
138,78,0.30379,0.30256,0.3011,0.29744,0.29548,0.29377,0.29255,0.29206,0.29231,0.29255,0.29231,0.29231,0.29206,0.29158,0.29084,0.28938,0.28987,0.29158,0.29548,0.31306,0.32821,0.34847,0.37363,0.43419,0.4674,0.50061,0.53284,0.58681,0.60586,0.62515,0.64298,0.6735,0.68596,0.69646,0.70525,0.7177,0.7221,0.72381,0.72405,0.72503,0.7243,0.72259,0.71966,0.71087,0.70476,0.69768,0.68962,0.67155,0.66105,0.64982,0.63761,0.61148,0.59853,0.58584,0.57314,0.55018,0.54042,0.53211,0.52503,0.51306,0.50818,0.50354,0.49915,0.48938,0.484,0.47888,0.47375,0.46471,0.46007,0.45568,0.45104,0.44176,0.43687,0.43223,0.42759,0.41783,0.41343,0.40952,0.4061,0.38486,0.37949,0.37875,0.38291,0.40342,0.41978,0.4398,0.46325,0.50525,0.52821,0.55092,0.57216,0.6083,0.62222,0.63321,0.64225,0.65446,0.65739,0.65836,0.65788,0.65714,0.65617,0.65397,0.65031,0.63956,0.63199,0.6232,0.61294,0.59096,0.57802,0.5641,0.55018,0.52381,0.51184,0.50061,0.49084,0.47595,0.4696,0.46398,0.45885,0.44811,0.44371,0.44005,0.43663,0.42955,0.42515,0.42076,0.41612,0.4083,0.4044,0.40073,0.39707,0.38999,0.38632,0.38242,0.37802,0.36728,0.36239,0.35849,0.35531,0.34799,0.34432,0.3409,0.33773,0.33089,0.32772,0.32479,0.32186,0.31819,0.316,0.31355,0.31087,0.30647,0.30452,0.30232,0.30012,0.29426,0.29182,0.2906,0.28962,0.28694,0.28498,0.28278,0.28083,0.27741,0.27595,0.27473,0.27375,0.27302,0.27204,0.27033,0.26838,0.26398,0.26203,0.26007,0.25812,0.25519,0.25446,0.2547,0.25495,0.25397,0.25372,0.25324,0.2525,0.25031,0.24957,0.24908,0.24884,0.25055,0.25104,0.25128,0.25153,0.25128,0.25079,0.25055,0.25104,0.25177,0.25226,0.25348,0.25421,0.25397
138,78,0.25421,0.2547,0.25739,0.27692,0.29597,0.32161,0.35433,0.42076,0.46056,0.50232,0.54408,0.62173,0.6547,0.68352,0.70794,0.74481,0.75604,0.76337,0.7707,0.78364,0.78852,0.79219,0.79463,0.79512,0.79316,0.7895,0.78413,0.7685,0.75824,0.74652,0.73407,0.70501,0.68913,0.67277,0.65617,0.62466,0.61099,0.59878,0.58681,0.56361,0.5536,0.54505,0.53748,0.52332,0.51648,0.51013,0.50379,0.49255,0.4862,0.47985,0.47375,0.46203,0.45592,0.45006,0.44444,0.43419,0.43004,0.42613,0.42149,0.41001,0.40415,0.39829,0.39243,0.3812,0.37607,0.37118,0.36703,0.36093,0.35751,0.35336,0.34921,0.34066,0.33602,0.33162,0.32772,0.32161,0.32039,0.31941,0.3177,0.31404,0.3116,0.30916,0.30647,0.29939,0.29548,0.29206,0.28938,0.28645,0.28498,0.28303,0.28156,0.27912,0.27814,0.27692,0.27521,0.27131,0.27009,0.26911,0.26813,0.26618,0.26545,0.26447,0.263,0.25934,0.25763,0.25617,0.25495,0.25495,0.25519,0.25592,0.2591,0.27668,0.29231,0.31331,0.33919,0.40122,0.43028,0.4569,0.48596,0.54164,0.56557,0.58632,0.60391,0.63004,0.6398,0.64713,0.65201,0.65519,0.65568,0.65592,0.65592,0.65592,0.65568,0.6547,0.65275,0.6442,0.63761,0.62979,0.62051,0.5978,0.5851,0.57192,0.55873,0.53236,0.52015,0.50867,0.49817,0.4823,0.47546,0.46862,0.46227,0.45177,0.44737,0.44371,0.44029,0.43321,0.42955,0.42589,0.42173,0.41319,0.4083,0.40317,0.3978,0.38779,0.38266,0.37778,0.37314,0.36606,0.36215,0.35824,0.35409,0.34579,0.34139,0.33651,0.33138,0.32308,0.32039,0.31819,0.31551,0.30989,0.30745,0.30501,0.30305,0.29939,0.29695,0.29426,0.29206,0.28816,0.28571,0.28352,0.28132,0.27839,0.27741,0.27595,0.27448,0.27106,0.26984,0.26911,0.26764,0.26374
138,78,0.26154,0.25958,0.25763,0.25495,0.25372,0.25324,0.25372,0.2547,0.2547,0.2547,0.25446,0.25397,0.25324,0.2525,0.25153,0.25055,0.25153,0.25348,0.25641,0.27057,0.28425,0.30256,0.32576,0.38291,0.41465,0.44664,0.47399,0.52259,0.54628,0.56752,0.58559,0.61416,0.62466,0.63297,0.64005,0.65031,0.6525,0.65372,0.65495,0.65543,0.65495,0.65348,0.65104,0.64249,0.63639,0.62882,0.621,0.60342,0.59341,0.58242,0.5707,0.5453,0.53236,0.52015,0.50794,0.48547,0.47668,0.46886,0.46129,0.44933,0.4442,0.43883,0.43346,0.42369,0.41905,0.41465,0.41074,0.40342,0.39927,0.39512,0.39121,0.38388,0.37973,0.37485,0.36972,0.35946,0.35556,0.35238,0.34823,0.33944,0.33504,0.33065,0.32674,0.3199,0.31722,0.31453,0.31233,0.30794,0.30794,0.3094,0.30842,0.3033,0.3011,0.2989,0.29768,0.29451,0.29377,0.29377,0.29328,0.29133,0.28987,0.28767,0.28523,0.27985,0.27643,0.27302,0.27106,0.26862,0.26716,0.26593,0.26447,0.26105,0.2591,0.25739,0.25592,0.2525,0.25177,0.25177,0.25128,0.24908,0.24835,0.24811,0.24835,0.24835,0.24762,0.2464,0.24615,0.24786,0.25055,0.25641,0.26667,0.3033,0.3304,0.36288,0.39902,0.47692,0.51087,0.54066,0.57192,0.63028,0.6547,0.67619,0.69426,0.72015,0.72943,0.73675,0.74066,0.74579,0.74774,0.74872,0.74896,0.74676,0.74408,0.74042,0.73529,0.7199,0.71087,0.7011,0.68987,0.66349,0.64835,0.63248,0.61661,0.58608,0.57118,0.55751,0.54652,0.52723,0.51844,0.51038,0.50305,0.49011,0.48449,0.47888,0.47277,0.46178,0.45739,0.4525,0.44737,0.43712,0.43175,0.42686,0.42247,0.41343,0.40928,0.4044,0.4,0.39048,0.38486,0.37949,0.37411,0.36337,0.35824,0.35287,0.34799,0.34115,0.33871,0.33626,0.33431,0.33114
138,78,0.23687,0.23541,0.23419,0.23394,0.23394,0.23468,0.23492,0.2337,0.23346,0.2337,0.2337,0.23297,0.23223,0.23126,0.23028,0.23248,0.23346,0.23541,0.24054,0.26691,0.28938,0.31844,0.35409,0.43687,0.48083,0.51868,0.55214,0.62173,0.65226,0.67937,0.70281,0.73822,0.7514,0.7619,0.77021,0.7768,0.77949,0.78144,0.78242,0.78242,0.78071,0.77802,0.77411,0.7619,0.75263,0.74188,0.7304,0.70305,0.68742,0.67033,0.65201,0.6127,0.59365,0.57607,0.5602,0.53626,0.52601,0.51697,0.50867,0.49426,0.48742,0.48107,0.47448,0.46178,0.45568,0.45006,0.44444,0.43053,0.42369,0.41758,0.41172,0.40049,0.39438,0.38803,0.3812,0.37094,0.36557,0.35995,0.35409,0.34237,0.33651,0.33114,0.32625,0.31697,0.31282,0.31013,0.30769,0.30037,0.29646,0.29304,0.28938,0.28254,0.27985,0.27741,0.27497,0.27277,0.27131,0.26935,0.2674,0.263,0.26129,0.25934,0.25763,0.2652,0.26618,0.26618,0.26569,0.25934,0.25617,0.25397,0.25226,0.25006,0.25006,0.25006,0.25031,0.2525,0.25324,0.25324,0.25275,0.25128,0.25031,0.24908,0.24786,0.24542,0.24591,0.2486,0.25348,0.27521,0.29426,0.31941,0.34969,0.42051,0.45812,0.49548,0.53114,0.58364,0.60757,0.62955,0.64908,0.68083,0.6928,0.70232,0.71013,0.72088,0.72308,0.72332,0.72357,0.7221,0.72063,0.71819,0.71477,0.70379,0.69621,0.68645,0.67497,0.65079,0.63663,0.62149,0.60586,0.57509,0.55995,0.5453,0.53138,0.50745,0.4989,0.49182,0.48498,0.47179,0.46545,0.45958,0.45397,0.44444,0.44029,0.4359,0.43101,0.42247,0.4188,0.4149,0.41099,0.40073,0.39463,0.38828,0.38217,0.3707,0.3663,0.36239,0.35775,0.34774,0.34286,0.33871,0.33504,0.32723,0.32332,0.31917,0.31429,0.30769,0.30427,0.30061,0.29695,0.29109
138,78,0.2884,0.28571,0.28278,0.27668,0.27473,0.2735,0.27155,0.26789,0.26618,0.26398,0.26154,0.25714,0.25519,0.25421,0.25372,0.25397,0.25409,0.25397,0.25348,0.25153,0.25031,0.24908,0.24786,0.24811,0.25153,0.25763,0.2674,0.30159,0.32723,0.35751,0.39145,0.46422,0.49988,0.53333,0.56361,0.60879,0.62295,0.6359,0.64689,0.66276,0.66764,0.67106,0.6735,0.67595,0.67643,0.67546,0.6735,0.66862,0.66569,0.66203,0.65665,0.6398,0.62833,0.61538,0.60122,0.57216,0.55946,0.54652,0.53333,0.50867,0.49817,0.48889,0.48107,0.46716,0.46105,0.45617,0.45201,0.44518,0.44225,0.43883,0.43492,0.42662,0.42198,0.41758,0.4127,0.40317,0.39951,0.39487,0.39023,0.38095,0.37631,0.37143,0.3663,0.3558,0.35067,0.34676,0.34408,0.33797,0.33504,0.33211,0.32918,0.32308,0.3199,0.31673,0.31355,0.30696,0.30452,0.30134,0.29841,0.29402,0.2928,0.2928,0.2906,0.28816,0.28694,0.28596,0.28547,0.28254,0.28278,0.28425,0.28474,0.28352,0.28254,0.28107,0.27937,0.27717,0.27521,0.27326,0.27155,0.27082,0.27424,0.28107,0.29206,0.32991,0.35653,0.38291,0.41074,0.48083,0.51673,0.55092,0.58242,0.63492,0.65592,0.67375,0.68816,0.70379,0.70965,0.71526,0.72063,0.72723,0.72918,0.73016,0.73016,0.72796,0.72576,0.72259,0.71844,0.70647,0.69792,0.68791,0.67595,0.64786,0.63223,0.61661,0.60147,0.57582,0.56386,0.55238,0.54115,0.52015,0.51062,0.50208,0.49451,0.48083,0.47521,0.47033,0.46593,0.45568,0.45031,0.44493,0.43932,0.42882,0.42369,0.41758,0.41099,0.40049,0.39536,0.39023,0.38535,0.37485,0.36947,0.3641,0.35897,0.34896,0.34457,0.34139,0.33871,0.33138,0.32747,0.32332,0.31917,0.31184,0.30867,0.30623,0.30379,0.30159,0.29988,0.29768,0.29524,0.28987
138,78,0.28718,0.28425,0.27888,0.27619,0.27326,0.27155,0.27082,0.26838,0.26716,0.26569,0.26398,0.26056,0.2591,0.25763,0.25617,0.2569,0.25665,0.25568,0.25446,0.25324,0.25299,0.25299,0.2525,0.25031,0.24908,0.24908,0.24908,0.25446,0.2591,0.26667,0.27863,0.31868,0.34676,0.379,0.41465,0.47863,0.51282,0.5475,0.58046,0.63541,0.65763,0.67619,0.69206,0.71722,0.72601,0.73114,0.73407,0.74066,0.74286,0.74457,0.74554,0.74383,0.7409,0.73675,0.73138,0.71697,0.70794,0.69768,0.68596,0.65934,0.64493,0.6293,0.61392,0.58535,0.57216,0.56117,0.55116,0.53016,0.52039,0.51184,0.50403,0.48962,0.48303,0.47692,0.47131,0.46178,0.45665,0.45201,0.44786,0.43785,0.43248,0.42686,0.42051,0.40757,0.40171,0.39707,0.39316,0.38486,0.37998,0.37485,0.36947,0.35849,0.35311,0.34799,0.34335,0.33724,0.33382,0.3304,0.32723,0.32112,0.31795,0.31453,0.31087,0.30403,0.30232,0.30159,0.30012,0.29621,0.29377,0.29109,0.2884,0.28327,0.28107,0.27937,0.27766,0.27643,0.27473,0.27253,0.27009,0.26569,0.26398,0.26325,0.26276,0.26154,0.26154,0.26203,0.26178,0.26105,0.26056,0.25983,0.2591,0.25714,0.25641,0.25568,0.25519,0.25861,0.26227,0.26886,0.28034,0.32015,0.34823,0.38071,0.41685,0.49402,0.52674,0.55556,0.58584,0.64005,0.66252,0.68181,0.69792,0.72186,0.72991,0.73602,0.74115,0.74432,0.7453,0.74652,0.74774,0.74774,0.74554,0.74188,0.737,0.72332,0.71429,0.70427,0.69304,0.66667,0.65201,0.63639,0.62076,0.58999,0.57582,0.56313,0.55165,0.53407,0.52625,0.51893,0.51184,0.49792,0.49084,0.48425,0.47814,0.46691,0.46203,0.45763,0.4525,0.442,0.43687,0.43223,0.42735,0.41587,0.41026,0.40464,0.39902,0.39121,0.38657,0.38144,0.37607,0.36532
